e0,e1,e2,e3,e4,e5,e6,e7,e8,e9,e10,e11,e12,e13,e14,e15,e16,e17,e18,e19,e20,e21,e22,e23,e24,e25,e26,e27,e28,e29,e30,e31,e32,e33,e34,e35,e36,e37,e38,e39,e40,e41,e42,e43,e44,e45,e46,e47,e48,e49,e50,e51,e52,e53,e54,e55,e56,e57,e58,e59,e60,e61,e62,e63,e64,e65,e66,e67,e68,e69,e70,e71,e72,e73,e74,e75,e76,e77,e78,e79,e80,e81,e82,e83,e84,e85,e86,e87,e88,e89,e90,e91,e92,e93,e94,e95,e96,e97,e98,e99,e100,e101,e102,e103,e104,e105,e106,e107,e108,e109,e110,e111,e112,e113,e114,e115,e116,e117,e118,e119,e120,e121,e122,e123,e124,e125,e126,e127,e128,e129,e130,e131,e132,e133,e134,e135,e136,e137,e138,e139,e140,e141,e142,e143,e144,e145,e146,e147,e148,e149,e150,e151,e152,e153,e154,e155,e156,e157,e158,e159,e160,e161,e162,e163,e164,e165,e166,e167,e168,e169,e170,e171,e172,e173,e174,e175,e176,e177,e178,e179,e180,e181,e182,e183,e184,e185,e186,e187,e188,e189,e190,e191,e192,e193,e194,e195,e196,e197,e198,e199,e200,e201,e202,e203,e204,e205,e206,e207,e208,e209,e210,e211,e212,e213,e214,e215,e216,e217,e218,e219,e220,e221,e222,e223,e224,e225,e226,e227,e228,e229,e230,e231,e232,e233,e234,e235,e236,e237,e238,e239,e240,e241,e242,e243,e244,e245,e246,e247,e248,e249,e250,e251,e252,e253,e254,e255,e256,e257,e258,e259,e260,e261,e262,e263,e264,e265,e266,e267,e268,e269,e270,e271,e272,e273,e274,e275,e276,e277,e278,e279,e280,e281,e282,e283,e284,e285,e286,e287,e288,e289,e290,e291,e292,e293,e294,e295,e296,e297,e298,e299,e300,e301,e302,e303,e304,e305,e306,e307,e308,e309,e310,e311,e312,e313,e314,e315,e316,e317,e318,e319,e320,e321,e322,e323,e324,e325,e326,e327,e328,e329,e330,e331,e332,e333,e334,e335,e336,e337,e338,e339,e340,e341,e342,e343,e344,e345,e346,e347,e348,e349,e350,e351,e352,e353,e354,e355,e356,e357,e358,e359,e360,e361,e362,e363,e364,e365,e366,e367,e368,e369,e370,e371,e372,e373,e374,e375,e376,e377,e378,e379,e380,e381,e382,e383
-0.036944,0.037105,0.024162,0.053213,0.030330,0.024597,0.050460,0.007296,0.033751,-0.066519,-0.055510,0.047346,-0.021239,0.041558,0.014784,0.073713,-0.002746,-0.156038,-0.010369,0.085590,-0.043139,0.001074,0.091183,0.044206,-0.048761,-0.009971,0.091168,0.048094,0.017255,-0.097130,-0.074302,0.108593,-0.069830,-0.035065,0.078229,0.012174,-0.004237,-0.106703,0.053547,-0.031477,0.074205,0.023578,-0.023090,0.061252,0.027025,0.030069,0.000105,0.057302,0.125995,0.030414,-0.060412,-0.040044,-0.034228,-0.025238,0.037471,0.028400,0.018242,-0.036485,0.092183,-0.012849,-0.011735,0.023374,-0.074169,0.091289,0.075078,-0.032049,-0.009124,-0.001962,-0.093734,0.063017,0.025812,-0.010543,0.033172,-0.037450,-0.023059,0.023201,0.007319,0.004723,0.120815,-0.002839,-0.067719,-0.004923,-0.027558,0.021014,0.015002,0.021485,0.013708,0.022248,-0.010858,-0.019565,-0.084815,0.034207,0.002810,-0.018027,0.040439,0.025081,-0.038645,-0.039695,-0.027574,0.110583,0.081765,0.040595,-0.031044,0.066576,0.002985,-0.058722,-0.052213,0.037965,-0.106229,-0.077356,0.032589,-0.003315,-0.008488,-0.021816,0.046118,0.111836,-0.052587,0.075836,-0.024651,0.054336,-0.004679,-0.022301,0.019547,0.003885,-0.041774,-0.018160,0.037379,-0.000000,0.116884,0.075630,0.030716,0.066228,0.004868,-0.002585,0.027343,-0.029278,-0.014273,-0.013334,0.051158,0.059468,-0.074861,-0.011561,-0.048247,0.070726,-0.055946,0.086309,0.036762,0.004922,-0.029193,0.032345,0.034372,0.091888,0.048591,-0.068334,-0.015472,-0.103879,0.013489,-0.005419,0.024913,-0.011109,0.034291,0.046251,0.040704,-0.025646,0.015609,-0.008914,-0.098788,0.001076,-0.008430,0.036459,0.023873,-0.035941,-0.029464,-0.032055,-0.013224,0.021080,-0.046681,-0.056569,0.005044,0.030969,-0.066366,-0.034320,-0.074631,-0.032116,-0.038640,0.041360,0.075971,0.082629,-0.047760,0.042590,0.029332,-0.069189,-0.138771,-0.053037,0.005941,-0.015062,0.093690,-0.032161,0.035699,-0.025350,0.048139,0.066713,-0.009779,0.002317,-0.016984,-0.011329,0.055618,-0.028798,0.065751,0.030634,0.065014,-0.064869,0.060403,0.060146,0.060825,-0.006727,-0.028649,-0.021472,-0.046758,0.040758,0.037488,0.034811,-0.120043,0.000000,0.068000,0.015257,-0.134446,0.054010,-0.038428,-0.037939,0.038669,0.029502,-0.135200,0.003400,-0.013114,-0.080360,0.058859,0.001370,0.063108,-0.035007,0.086173,0.029501,-0.024641,0.023418,-0.107598,0.050154,-0.019488,0.050978,-0.038891,0.041929,0.002312,0.053740,-0.038701,-0.046073,0.032381,0.014353,-0.052621,0.003096,0.025234,0.077116,0.006011,-0.049724,-0.007053,-0.076735,0.015782,0.047614,-0.074191,0.100615,0.031193,-0.072086,0.010487,0.050512,-0.006145,0.036800,-0.020198,-0.028706,0.016143,0.002321,-0.024105,-0.059360,-0.007576,-0.064557,0.041367,0.026520,-0.135303,0.032881,0.017654,0.017873,0.066432,0.011369,-0.102739,-0.002185,0.022270,-0.058520,-0.013488,-0.076026,0.049203,-0.027721,0.034924,0.011549,0.014464,-0.075404,-0.024188,-0.033119,-0.041188,0.037037,0.045301,-0.011347,0.002625,-0.119298,0.081139,0.021342,0.022053,-0.027756,-0.007256,0.002057,-0.055006,-0.023841,0.017379,-0.000000,-0.024576,0.019016,0.000007,0.047111,-0.010971,-0.000740,-0.035455,-0.009999,-0.014938,0.012397,0.058206,0.104691,-0.076607,0.009921,0.021011,0.002804,0.011130,0.008873,-0.057371,-0.024780,-0.032162,0.042026,0.044918,0.005706,0.095843,0.022630,-0.112378,0.075982,0.039413,0.034921,0.028385,0.090513,-0.109152,-0.013630,-0.022819,-0.012799,0.061576,0.089823,0.013044,-0.058932,-0.045795,-0.017677,-0.002139,-0.101250,-0.022907,-0.032003,0.012309,-0.062262,-0.058425,-0.003504,-0.002754,-0.081826,0.019668,0.047166,0.017693,-0.043980,0.038330,-0.023713,-0.046882,-0.023648,0.011078,0.056513,0.064446,0.066319
-0.078110,0.108334,-0.052268,0.013339,-0.030856,-0.025598,0.007586,-0.092685,0.003803,-0.020977,0.030186,0.016726,0.030785,-0.057080,-0.009294,0.047440,-0.055008,0.038030,-0.065697,0.011053,-0.015569,0.039481,-0.066200,0.000130,0.028289,0.008121,0.056432,0.061443,0.044611,-0.072313,-0.010216,0.012909,0.040574,0.037223,0.067624,0.118161,0.010769,-0.018198,-0.086835,-0.002343,-0.017098,-0.064599,-0.025906,0.039803,-0.027026,0.056253,-0.116753,-0.028703,0.001325,-0.104566,-0.027628,0.039520,-0.026477,0.067131,0.071092,0.031323,-0.063615,-0.090832,0.025973,0.010272,0.005239,0.055452,-0.046884,0.076297,0.044421,0.071704,-0.055773,-0.008151,0.016715,0.040026,-0.047204,-0.035520,0.058536,0.040951,-0.021844,0.018568,-0.030284,0.065740,0.000676,-0.014784,0.013693,-0.028135,-0.037614,0.019136,-0.003346,0.057771,-0.095933,-0.031406,0.053263,0.015568,-0.049264,-0.000643,0.127036,0.029249,-0.079207,-0.025761,0.008433,-0.001691,-0.104518,0.101225,0.022028,0.048226,-0.014231,-0.013307,-0.064432,-0.068453,0.023002,0.016520,0.015653,-0.056845,-0.054510,-0.048741,-0.021907,-0.063679,-0.033904,-0.063080,-0.032803,-0.065837,0.082240,0.092263,0.021121,-0.057105,-0.119036,0.068869,0.004943,-0.051847,0.017263,-0.000000,0.006844,-0.033745,0.043973,-0.090637,-0.011403,0.028912,-0.092390,-0.066540,-0.067910,-0.044232,0.076710,0.001256,-0.013584,0.024627,0.001638,-0.052173,0.048943,0.066895,0.000539,-0.020696,0.013734,0.029435,-0.052687,-0.022524,-0.030543,0.005271,-0.036574,-0.052883,0.014087,0.036022,-0.014842,-0.010451,-0.008635,0.005431,0.023494,0.010331,-0.049767,0.026603,0.004741,-0.003646,-0.033555,-0.077644,-0.065132,-0.026604,0.003777,0.022399,-0.016515,-0.007762,0.000494,-0.058218,0.026971,0.070739,0.013078,0.015307,0.066926,-0.032918,0.046416,0.048339,-0.008521,-0.013611,-0.100108,0.047886,0.021932,0.000010,-0.006998,0.008029,-0.041137,0.035791,0.067534,0.028468,-0.076634,0.081667,-0.001986,0.115671,-0.128941,0.022477,-0.079631,0.020585,0.059607,0.093427,0.021071,0.047578,-0.030300,-0.035918,0.035997,-0.040274,-0.012824,-0.091897,-0.010010,-0.000281,-0.067138,0.034879,-0.007004,-0.053674,0.005988,-0.000000,0.025749,-0.018662,-0.064295,0.028221,-0.014787,0.091923,0.090628,0.049286,0.001909,0.141467,0.048439,0.016486,0.009695,-0.075431,0.155954,0.104750,-0.000496,0.103383,-0.024547,-0.041085,-0.027626,-0.025014,-0.003705,0.055584,-0.022213,-0.006264,0.049649,0.138466,-0.039928,0.000623,0.093428,-0.031724,-0.067613,0.009325,-0.003962,-0.078578,0.000842,0.009706,0.000956,0.003740,0.044097,0.050409,-0.022318,0.061365,-0.062499,-0.018649,-0.042699,-0.004979,0.043634,-0.114285,0.020326,-0.046952,0.026023,0.005534,-0.009268,0.091178,-0.020442,0.066157,0.070775,0.004627,-0.005490,-0.023000,-0.013312,0.005505,0.077314,-0.094647,-0.000875,0.038931,-0.068460,-0.034488,0.076640,-0.002082,-0.137764,-0.089848,-0.029917,0.019797,0.066735,0.005832,-0.072573,-0.051488,-0.015367,0.009512,0.001520,0.036279,-0.014370,-0.013251,-0.051383,0.018163,-0.051192,0.029000,-0.000579,0.017563,-0.077378,0.071053,0.010072,-0.000000,-0.038541,-0.071973,-0.032996,-0.040786,0.047139,-0.027847,-0.046936,-0.047067,-0.078616,0.012320,0.087383,-0.021021,-0.044835,0.005337,-0.026641,-0.008479,0.105358,0.019991,-0.003107,-0.020836,0.077889,0.005244,0.077841,0.024513,-0.054974,0.037261,-0.051522,0.060309,0.019265,-0.068517,0.041422,0.052452,0.010095,-0.033758,0.029197,0.059948,0.007893,0.002494,-0.022370,-0.013598,0.014805,0.000515,0.032358,0.060505,-0.065832,-0.024799,0.069349,-0.120529,-0.036782,-0.131784,-0.033289,-0.011106,0.003615,-0.050807,0.018648,-0.012019,-0.012260,0.013146,-0.031314,0.040026,0.121731,0.035606,-0.016746,0.037485
0.048759,-0.125850,0.109745,-0.005007,-0.096667,0.021480,-0.074940,-0.031017,-0.074778,-0.042487,-0.067395,-0.005928,-0.002194,0.022331,0.096911,0.068582,-0.012103,-0.054313,0.088594,-0.053833,-0.017031,0.057044,0.006484,-0.012043,0.002241,0.104424,0.013693,0.012143,0.016473,-0.083222,-0.013474,0.064259,0.110055,-0.169530,0.064553,0.000907,-0.111241,-0.016210,0.030011,0.019497,-0.000446,-0.024893,0.104891,0.066227,-0.085400,-0.030692,0.049787,-0.051590,0.061252,0.011109,0.102663,0.006953,0.001230,-0.006152,0.015140,0.006306,0.005074,-0.018470,0.027401,0.022524,0.011961,0.011127,0.006366,-0.002429,-0.027508,0.011456,-0.079009,-0.029072,0.034544,-0.000244,0.019774,0.020530,0.024854,-0.000123,0.152086,0.100628,0.054792,-0.002225,0.005511,-0.153798,-0.057955,-0.065050,-0.025542,-0.072093,-0.059680,-0.008100,-0.000087,0.032255,0.091552,-0.006332,0.024601,-0.020750,-0.070354,0.021771,0.083702,0.039762,-0.085991,-0.002119,-0.042949,0.020618,0.008673,0.070137,0.013031,-0.036288,0.032523,-0.015071,-0.048992,-0.014755,-0.042613,-0.007195,0.075419,-0.007311,0.077641,0.052694,-0.059864,-0.058289,0.040256,-0.012604,0.006818,0.027794,0.025124,0.012938,-0.010282,0.017865,0.014167,0.029450,-0.063218,-0.000000,-0.010883,-0.014266,-0.060283,-0.034452,0.054265,-0.064783,0.019658,-0.005712,-0.048438,-0.003481,0.074005,0.033973,0.034696,0.078510,0.057639,-0.018890,-0.011081,0.026801,-0.041755,-0.030803,-0.060800,-0.013177,-0.082794,0.022747,-0.025235,0.039044,0.058513,0.034402,-0.053587,-0.005329,-0.026108,-0.041302,-0.025374,-0.010827,0.053027,0.006710,0.012846,0.015483,-0.014897,-0.018225,-0.038177,-0.005681,-0.021879,-0.001863,0.033765,-0.075734,0.013404,0.053432,0.032970,-0.037471,0.045570,-0.016718,-0.048985,0.021934,0.032773,-0.029920,0.047043,0.010801,-0.020147,-0.006110,0.009142,0.097356,-0.067099,0.055364,-0.064748,0.048530,0.002039,0.016895,0.002296,-0.007674,0.004750,-0.002685,-0.061212,-0.029151,-0.059558,0.007878,0.029045,0.042848,0.109167,0.056860,0.001008,-0.020175,-0.064761,-0.020753,0.060620,0.058169,0.019634,-0.005979,0.024843,-0.028446,-0.027416,0.032456,-0.036651,-0.007640,-0.010228,-0.000000,-0.057992,0.044083,0.001726,0.069329,-0.023624,-0.035339,0.103510,0.023980,0.026472,-0.061905,-0.004195,0.077897,0.022037,-0.054140,-0.024062,-0.003783,-0.027461,-0.020667,0.025790,-0.030571,-0.041155,0.032527,-0.050720,0.003296,-0.052439,0.021273,-0.080598,-0.008851,-0.088781,0.044637,-0.078033,-0.059796,-0.034043,-0.067894,-0.037162,-0.030208,0.093931,-0.009549,-0.056273,0.014927,0.020653,-0.021924,0.004882,0.012609,-0.045303,0.062796,0.051820,0.069082,-0.038527,0.079859,-0.023536,-0.000661,-0.114079,0.000605,-0.039197,0.063207,0.040416,0.007831,0.037281,0.016639,0.023153,0.063772,0.010898,-0.064911,0.026404,0.119388,0.005914,0.020325,-0.081013,0.016650,-0.044599,0.024871,-0.017030,-0.055955,0.026744,0.167058,-0.011486,0.003562,-0.014932,0.029734,0.005671,0.016617,-0.096473,0.119508,0.076547,0.033587,-0.063794,-0.042833,0.084345,0.058227,0.001491,-0.007544,-0.014283,-0.090653,-0.054701,-0.000000,-0.050316,0.075905,0.002335,-0.025087,0.093817,0.006933,0.074360,0.043714,0.036573,0.058530,0.058642,0.000876,-0.077968,0.015990,0.012220,0.016292,-0.005035,0.043153,-0.091976,-0.135093,-0.079423,0.032542,0.065537,0.040159,-0.077436,-0.044606,0.035881,0.003000,-0.020659,-0.014219,0.010611,0.041863,-0.026651,-0.046906,0.038166,-0.066365,-0.043633,0.047060,-0.018476,0.057481,-0.131482,-0.047901,-0.014339,0.018783,-0.009482,-0.026563,-0.146959,0.044343,-0.038143,-0.055781,-0.026571,-0.039897,-0.028249,0.056046,0.118518,-0.010844,-0.026369,-0.069033,-0.081016,0.001575,-0.015338,-0.033714,0.033776,-0.019605
-0.039923,-0.067727,0.029379,-0.007498,-0.054353,-0.018762,-0.011738,0.064540,0.019822,-0.004276,-0.034770,-0.019684,0.005079,0.027345,0.032961,-0.002182,0.003894,-0.017887,0.037528,0.123900,0.021504,0.049115,-0.026747,-0.067858,0.031186,-0.045089,-0.016913,0.108105,0.010377,-0.000757,0.016407,0.041693,0.062844,-0.035946,0.008221,0.139234,-0.070109,0.035118,0.051667,0.013544,0.008678,0.003588,0.062460,-0.051131,-0.071258,-0.057088,-0.027225,-0.122438,-0.026933,-0.015694,0.108818,0.036779,-0.010144,0.002884,-0.034661,0.092501,-0.014540,-0.080645,-0.002650,0.001055,0.068595,-0.046240,0.023372,-0.011117,0.042949,-0.080240,-0.007795,0.040568,-0.079131,0.074782,0.037978,-0.072574,-0.067155,-0.004955,0.042153,-0.007292,0.028914,0.009246,0.045922,-0.009354,0.119920,0.040862,-0.087364,0.058346,0.032719,0.038586,0.039643,-0.058719,0.051943,0.058476,-0.050277,-0.102871,-0.022154,0.012039,-0.007738,0.008804,-0.033969,-0.063557,-0.070177,0.072184,-0.055257,0.033982,-0.033533,-0.036272,0.002939,-0.030706,-0.033844,-0.042867,-0.014304,-0.064724,0.039249,-0.003759,0.067108,0.038927,-0.029800,-0.015555,-0.023830,0.040340,-0.022254,0.011481,0.020642,0.009011,0.009689,0.058796,-0.103809,-0.058170,-0.008343,-0.000000,0.015661,-0.033138,0.083707,0.041108,-0.001878,0.011924,0.008838,-0.016360,-0.058263,-0.023855,-0.037388,0.003312,-0.007780,-0.002065,0.014020,0.034387,-0.005294,-0.045834,0.032965,-0.032768,0.054784,-0.140967,-0.009159,-0.037061,-0.031720,0.015155,0.022361,-0.107213,-0.025966,-0.014527,0.008632,0.045143,-0.041099,-0.051906,-0.010499,0.061011,0.004723,-0.045088,0.005055,0.015709,-0.061817,0.097098,-0.103845,0.006133,0.058397,0.006030,0.087148,-0.054268,-0.078269,-0.004301,-0.024141,0.007051,-0.014222,-0.021280,-0.063018,0.061411,-0.001837,0.093719,0.020946,0.013222,-0.030577,0.021654,-0.083566,-0.027670,-0.124236,0.028840,0.079455,-0.060113,-0.088705,0.078297,-0.010094,-0.024832,-0.047207,-0.055561,-0.087587,0.022231,-0.028389,-0.017320,0.125094,-0.003590,0.059964,-0.071780,0.090357,-0.036711,0.048202,-0.122696,0.020868,-0.017145,-0.021738,0.021024,-0.047142,0.045325,-0.013058,-0.035940,-0.031731,0.000000,-0.060571,-0.044932,-0.025634,0.073054,-0.024734,-0.014196,0.043509,-0.023949,-0.117754,0.039837,0.006144,0.044254,-0.023645,0.009640,0.041093,0.029314,-0.037192,0.056228,0.018498,-0.009064,0.003468,0.113153,-0.041112,0.150699,-0.000378,0.073210,-0.014457,0.006251,-0.151025,0.032649,-0.011374,0.037819,-0.040716,0.048293,0.027167,0.015536,-0.001142,-0.069510,-0.029857,0.064219,0.005462,0.070637,-0.010429,-0.034485,-0.068622,-0.076466,0.119527,0.063619,0.093656,-0.031700,-0.024830,0.042261,-0.092273,0.059968,-0.046157,-0.042980,0.017977,-0.009425,0.129992,-0.023338,0.020864,0.033621,0.031713,0.022501,0.002507,0.082134,-0.070752,-0.023230,0.009148,-0.062004,0.047297,-0.003424,0.035246,-0.046850,-0.002626,0.047353,0.046904,0.046578,-0.038537,-0.031880,-0.082996,-0.043712,0.020800,-0.027481,-0.003354,0.065027,-0.086266,-0.002656,-0.013634,-0.013819,-0.021042,-0.023219,0.000948,0.027089,0.047179,-0.000000,0.043978,-0.055156,0.061566,0.002232,-0.070173,0.064037,0.024878,-0.039124,0.078866,0.022721,0.090331,-0.001354,0.031981,-0.009681,0.000287,0.093771,-0.015679,0.041313,-0.085962,0.082619,-0.023502,0.085306,-0.004336,0.032168,-0.008906,-0.024953,-0.065383,0.017872,-0.008000,0.014807,0.022221,-0.104803,0.011545,0.012220,0.036807,0.067839,0.007343,-0.005902,0.006421,-0.014045,-0.058009,-0.047355,-0.055616,0.018585,0.028132,-0.004221,0.014788,0.000457,-0.014313,-0.015434,0.086133,0.028723,0.030838,0.069212,0.089320,-0.003311,-0.081150,-0.021505,-0.126234,0.005812,0.049048,-0.059242,0.061983,-0.008919
-0.096405,0.032185,0.007292,0.039218,0.013849,-0.001763,0.016748,-0.032664,-0.020170,0.023710,0.019015,0.021258,0.013013,-0.014477,0.042476,0.028020,0.012242,-0.046826,0.000256,0.006088,-0.033458,-0.024931,-0.038863,-0.012389,0.057539,-0.029806,0.019095,0.048084,0.101374,-0.009831,-0.021658,0.082050,0.041946,0.004026,-0.024364,0.100588,-0.095915,-0.040143,-0.094562,-0.042812,-0.000237,-0.057745,-0.040655,0.069887,-0.003322,-0.013648,-0.049549,-0.074702,0.041297,0.008786,-0.010982,-0.054665,-0.079565,-0.059124,-0.008081,0.021123,-0.094010,-0.053349,-0.023832,-0.020615,-0.011088,-0.034772,-0.044132,0.053922,0.020417,0.014469,-0.029179,0.142573,0.007082,0.019709,-0.014449,-0.054572,0.003315,-0.023479,0.041924,0.036823,0.038613,0.030787,0.008525,-0.080620,0.042198,0.016847,-0.080754,0.003933,-0.049235,0.041175,-0.044102,-0.113001,0.082524,-0.018221,0.031731,-0.083880,0.006209,0.070351,-0.006072,0.037350,-0.037744,-0.021011,-0.070591,0.027546,0.042003,0.024949,-0.024069,0.045983,-0.133153,-0.104890,0.041619,0.025796,0.074339,0.016424,-0.068172,-0.000867,0.071773,-0.047817,-0.124963,0.008432,-0.036944,-0.039046,0.141429,0.076848,-0.014292,-0.027150,-0.053177,0.006948,-0.021552,-0.001166,0.045534,-0.000000,-0.016681,0.021404,0.026191,-0.056254,-0.038992,0.025154,-0.026221,-0.054371,-0.075780,-0.012296,0.046982,0.070760,-0.024127,0.099613,0.030773,-0.143401,-0.015730,0.085898,0.055917,-0.004834,-0.001938,-0.023653,-0.011088,-0.044671,0.024200,0.011195,0.011015,-0.048358,0.000564,0.062636,-0.038555,0.029594,-0.087471,0.006441,-0.006607,0.132536,-0.036918,0.009203,0.006637,-0.009320,-0.062972,-0.038436,-0.091210,-0.063415,-0.001376,0.018434,0.063551,-0.045196,-0.041467,-0.051616,-0.021187,0.022866,-0.042614,0.012982,0.034646,-0.014557,0.015018,0.015949,-0.011120,-0.031773,-0.057117,0.036227,0.048339,0.013040,-0.048342,0.081885,-0.044724,-0.009787,0.004103,0.062672,-0.043587,0.040904,-0.000688,0.013684,-0.067098,-0.000973,-0.047748,0.066724,0.155393,0.107467,-0.058274,-0.015353,-0.067207,0.001826,0.056088,0.013614,0.044347,-0.034598,0.043211,-0.061639,-0.051464,0.003954,-0.022675,0.017548,0.020841,0.000000,-0.009657,-0.037553,-0.000426,0.046076,-0.023146,0.028306,0.038476,0.021832,0.066563,0.065970,-0.012858,0.100430,0.004633,-0.033709,0.044127,0.010678,-0.048920,0.005328,0.020242,0.044407,-0.027364,0.060319,-0.087356,0.054479,0.046576,-0.018400,-0.010083,0.106149,-0.044956,0.003001,0.029829,-0.011059,-0.118631,0.005288,-0.004686,-0.023404,0.083592,0.086569,-0.080253,0.026406,0.019193,-0.062312,-0.011075,0.024867,-0.005743,0.036600,0.017555,-0.020723,0.033102,-0.034540,0.086998,0.027551,0.002218,0.025221,-0.090287,0.023526,-0.042454,0.056385,0.038074,-0.022059,0.051757,0.021447,0.010172,-0.032003,-0.030887,-0.045790,0.017157,0.002636,-0.080111,-0.078306,-0.004522,-0.015939,-0.112152,-0.081768,-0.023855,0.050605,0.101948,-0.001458,-0.007410,-0.003191,-0.003564,0.036552,0.028783,0.016423,0.004963,0.026768,-0.084764,-0.001433,-0.044964,-0.020182,-0.089258,-0.028582,-0.110359,0.051455,-0.035263,-0.000000,-0.037039,-0.027049,0.095079,-0.020274,0.108345,-0.060047,-0.023090,0.070366,-0.020537,0.035587,0.083876,-0.009250,0.012119,0.012999,0.041975,0.028532,0.071726,0.076920,-0.050943,0.010118,0.037790,0.068812,0.128663,-0.067827,-0.057518,0.036289,-0.006752,-0.031655,0.082669,-0.045735,0.032096,0.025193,0.019708,-0.026341,0.027963,0.079742,0.042195,-0.008543,-0.024386,0.010538,-0.038822,-0.001028,0.090553,0.057729,-0.095322,0.003373,-0.044249,-0.079549,-0.012509,-0.121140,0.005720,-0.024155,-0.023277,0.004718,0.081282,0.012017,-0.031372,0.015654,-0.062728,0.076165,0.097348,-0.098712,-0.049532,0.058952
-0.020849,-0.046923,0.057838,0.032515,0.020358,-0.002697,-0.018821,-0.035901,0.054384,-0.047806,-0.089573,0.048932,-0.039987,-0.014204,0.118144,-0.012469,-0.008519,-0.076342,-0.029496,0.025711,-0.034264,-0.050051,-0.081475,-0.060644,0.112210,0.030733,-0.012303,0.097971,0.053995,-0.017820,-0.078967,0.016387,0.003391,-0.108775,0.016227,0.040408,-0.102289,-0.041157,-0.010275,0.056137,0.009203,-0.071374,-0.005594,0.055273,-0.058637,0.002580,-0.019263,-0.011860,0.000518,0.035907,0.011306,0.079387,-0.037173,-0.039109,-0.000560,0.051310,-0.043760,-0.051558,-0.022922,-0.026605,-0.029128,0.000489,-0.025448,0.076027,-0.090771,-0.084656,-0.041616,0.079196,-0.065375,-0.022797,0.008601,0.025883,0.042703,-0.027327,0.077226,0.053291,0.013849,-0.053618,-0.008395,-0.044882,0.054274,-0.047690,-0.000569,-0.004164,-0.039956,0.022086,-0.013247,-0.045555,-0.000215,-0.000251,0.046921,-0.078439,-0.022550,0.010597,0.110757,0.016631,-0.070176,-0.067270,-0.011781,0.053787,-0.013810,0.019764,-0.006078,0.014309,0.006427,-0.053140,-0.031222,0.068111,0.024310,0.040786,0.021889,0.012766,0.096725,0.028108,-0.088276,-0.054557,-0.076448,-0.020986,0.055253,-0.006121,0.040015,0.088240,-0.025746,0.019114,-0.063215,0.034652,0.094371,-0.000000,0.070744,0.011241,0.041255,-0.020131,-0.008644,-0.006971,0.060555,-0.006339,-0.056823,-0.043842,-0.011132,0.043932,-0.034195,-0.025099,0.031493,-0.075322,-0.045713,0.062814,0.054006,0.002651,-0.002471,-0.084383,-0.003996,-0.003822,-0.010176,-0.089488,0.036628,-0.013960,-0.073874,0.024973,-0.015202,0.064406,0.000419,-0.042399,0.002360,0.060098,0.023171,0.074895,0.008467,-0.086429,-0.055608,-0.030517,-0.031587,-0.038129,-0.016964,0.004057,-0.039431,0.018981,-0.067142,-0.053434,0.018030,-0.019760,-0.145966,0.098435,-0.064848,0.014883,-0.028308,0.049974,-0.031803,0.040586,0.002603,0.106350,-0.068945,-0.019523,-0.097583,0.045641,0.033925,0.029111,-0.017222,0.049509,0.010400,-0.035586,-0.033083,0.035312,-0.008910,0.005631,0.052875,0.094306,0.132362,0.039630,-0.007666,-0.086407,0.014351,0.011695,-0.021773,0.040074,0.014425,0.001838,0.004511,-0.037076,-0.033006,-0.000312,-0.061739,-0.046597,-0.066824,0.000000,-0.070524,0.027794,0.004254,0.072930,0.009888,-0.033020,-0.019072,0.017580,0.062055,0.068294,0.000195,0.130396,-0.055233,-0.041959,-0.000703,-0.075499,-0.004388,-0.097205,0.027099,0.034182,0.051056,0.051772,-0.076396,0.007495,0.046217,0.004186,-0.070321,-0.034350,-0.050891,0.049088,0.011506,-0.049849,-0.102229,-0.051469,0.014364,-0.017874,0.052898,0.071111,-0.052936,0.048312,0.044905,-0.112294,-0.033101,0.060271,0.037404,0.013226,0.074296,-0.087701,0.058024,0.050955,-0.082876,0.064508,-0.081035,0.143516,-0.109690,-0.041268,-0.024046,0.009427,0.007284,-0.061501,0.062579,0.101870,-0.000831,-0.090104,0.027027,0.001429,-0.018852,-0.082147,0.014184,-0.072549,-0.067317,-0.009508,-0.043656,-0.066168,-0.017243,0.087759,-0.017011,-0.024233,-0.036601,0.091878,0.060258,0.019913,-0.015152,0.080566,0.023762,0.031535,-0.006818,-0.072284,-0.004788,0.076502,-0.044347,-0.010793,-0.059342,0.002877,-0.004032,-0.000000,0.034703,0.040357,0.044193,0.058543,-0.013181,-0.085453,0.038259,0.041540,0.060452,0.004051,0.050952,0.018234,-0.012652,-0.034747,0.041258,0.028618,-0.043675,0.037062,-0.031766,-0.019118,-0.012251,0.086285,0.067854,-0.011191,-0.039107,-0.024629,-0.015688,-0.155615,-0.005353,0.054835,0.028618,0.060291,0.027821,-0.082935,0.014646,-0.007925,0.010085,-0.024819,-0.015082,-0.002979,-0.067099,-0.034303,0.047832,0.044858,0.046088,-0.005804,-0.034857,0.076116,-0.014447,-0.093352,0.009920,0.008786,0.058153,0.042876,0.053260,-0.003581,-0.055802,0.014954,-0.057734,-0.003765,-0.021575,-0.016882,0.102851,0.042417
0.038218,0.020853,-0.058336,-0.088157,0.025656,-0.008115,-0.045101,0.019631,0.017783,0.053183,-0.078153,0.050637,-0.095234,0.008391,0.028255,0.001253,-0.002654,-0.055062,-0.042398,0.008087,-0.000887,-0.041385,0.031764,-0.008506,-0.007131,-0.044548,0.031749,-0.004193,-0.023939,-0.071854,0.039391,0.045961,0.087483,-0.061902,-0.029966,-0.030851,-0.008795,-0.006194,-0.012824,0.060946,0.018598,-0.044255,0.040320,0.145950,-0.100515,-0.001869,-0.054883,-0.105208,-0.008082,0.096076,-0.032914,0.073760,0.065251,-0.050576,0.078529,0.021739,0.025605,-0.043661,0.044416,0.010484,0.000649,0.013786,0.018950,0.032897,-0.001832,-0.149634,0.030122,0.008886,-0.006306,-0.060456,0.029253,-0.009927,0.027588,-0.057628,-0.046383,0.003704,-0.082100,0.028128,0.021572,-0.078930,0.065769,-0.083026,-0.055168,0.021910,-0.035773,0.018247,-0.010497,0.008938,-0.059080,0.014185,-0.023704,-0.007729,0.019514,0.058019,0.013685,0.094601,-0.048887,-0.029221,0.019393,0.061518,-0.066050,0.072022,0.040057,0.036254,-0.034935,-0.031105,0.020464,0.055879,-0.006603,-0.012368,-0.012547,0.043632,-0.030634,0.020851,0.058101,0.001785,0.010066,0.021347,-0.048894,0.044339,0.114855,0.023850,-0.021814,0.055159,0.024474,0.010599,0.023513,-0.000000,0.011384,0.018380,0.014021,0.037591,0.010368,-0.026869,0.053122,-0.012872,-0.074817,-0.015644,-0.008774,-0.019247,-0.014513,-0.064419,-0.018122,-0.060598,-0.063126,0.011820,0.048027,0.055993,0.011411,0.036186,-0.027926,-0.029080,-0.010664,0.126940,-0.010518,0.038592,-0.015244,-0.013913,-0.021337,-0.017790,-0.047070,-0.030647,0.046743,-0.002281,-0.060788,-0.046711,-0.046333,-0.011950,0.057603,-0.011727,-0.087724,-0.005449,-0.095721,-0.077929,0.047134,-0.069824,0.057348,-0.022111,0.158899,0.068016,-0.026381,-0.012066,-0.028709,0.037155,0.039474,-0.104533,0.022125,0.017014,0.013545,-0.036494,0.058733,-0.028163,-0.031891,0.107578,0.008270,-0.017674,0.005267,-0.042621,-0.013425,-0.047699,0.044992,-0.024120,0.042966,0.030700,0.028095,-0.042792,0.035687,-0.085831,0.006296,-0.161574,0.041735,-0.009710,-0.033618,-0.050084,0.036041,-0.000561,-0.106984,0.000025,-0.004401,-0.021874,-0.164172,-0.029294,0.008840,0.000000,-0.042396,-0.028397,-0.099297,0.044444,-0.021400,-0.020048,0.056484,0.110443,0.018579,0.008569,-0.013340,-0.017349,0.037721,-0.047957,-0.018095,0.068935,0.023196,-0.006278,0.092882,0.027233,-0.031437,0.086344,-0.044831,-0.022437,0.018828,0.055259,-0.004576,-0.042398,-0.028012,-0.023429,-0.023961,-0.070274,0.020078,-0.050610,-0.064448,-0.037910,0.108875,0.011231,-0.041772,-0.003242,0.084075,0.013969,-0.090194,0.032665,0.046234,0.013118,0.082012,0.151150,-0.005869,0.060465,0.084471,0.053753,-0.080141,0.006314,0.007621,0.004784,-0.000846,-0.049560,0.027135,0.007459,-0.018718,0.032516,-0.076519,-0.016234,0.096796,0.078207,-0.043491,-0.100377,-0.040462,0.021211,-0.058069,-0.056014,-0.044994,0.067951,0.040982,0.044080,0.003800,0.005933,0.042613,0.095800,0.021094,-0.058452,0.001277,0.106613,0.082476,0.135596,-0.002928,-0.054394,-0.051702,0.008144,-0.108318,0.026524,-0.006389,-0.041960,0.029874,-0.000000,-0.040212,-0.009591,0.016806,-0.027896,0.023365,0.060839,-0.023046,0.035675,0.001560,0.007708,0.087531,0.030620,0.031652,0.000856,0.047668,0.059666,0.064783,-0.068987,0.014173,0.045989,-0.051601,0.069634,-0.020206,-0.053039,0.031050,0.041919,-0.100938,0.080054,-0.026311,-0.103352,0.078141,-0.039061,-0.028240,-0.038407,-0.014047,0.015006,0.012380,0.006744,0.047191,-0.029224,-0.016630,0.067315,-0.070675,0.045471,0.050698,-0.011417,-0.073423,-0.064662,-0.001892,0.004783,-0.007797,-0.050715,-0.035845,-0.005719,0.098977,-0.000277,-0.050336,0.072915,-0.022706,-0.029113,0.044459,-0.049624,-0.018467,0.058783
-0.123075,0.117184,0.025659,0.042695,-0.019438,-0.048232,0.014843,-0.039307,-0.017169,0.004481,0.005411,-0.055758,0.020552,-0.075410,0.003269,0.040243,-0.026319,-0.018656,-0.118814,0.041351,-0.030556,-0.012775,-0.010687,0.011771,-0.018880,-0.034327,0.056155,0.045126,-0.008092,-0.041500,0.006815,0.060756,0.000919,0.018372,0.017224,0.136512,-0.025261,-0.055061,-0.094419,-0.038142,0.010239,-0.019886,-0.033126,0.040953,0.017102,0.005622,-0.105763,0.003053,0.013045,-0.074534,-0.045006,0.047252,-0.046082,0.082085,0.079900,0.043246,-0.066960,-0.061581,0.056002,-0.047393,-0.019323,0.007610,-0.083161,0.047855,0.029556,0.030466,-0.047817,0.075370,-0.024743,0.104985,-0.041956,-0.051852,0.031567,0.028112,-0.038005,-0.028107,0.005579,0.071864,0.007010,-0.009240,0.049644,-0.067191,-0.064444,0.040277,0.002022,0.020924,-0.063086,-0.024296,0.061310,0.052518,-0.052422,0.025032,0.107997,0.024624,-0.026163,-0.051408,0.000751,0.041803,-0.107902,0.145751,0.054235,0.080685,-0.004040,0.066478,-0.066339,-0.009789,-0.037945,0.005918,-0.017444,-0.038215,-0.047249,-0.050487,-0.030375,0.014556,0.039587,-0.034009,0.022250,-0.041638,0.002991,0.044835,-0.014239,-0.058534,-0.117786,0.069647,0.012980,-0.005007,0.016879,-0.000000,-0.002079,-0.010085,0.017206,0.003806,-0.028903,0.013724,-0.088807,-0.034874,-0.027538,-0.020152,0.105716,0.040105,-0.055942,0.032145,-0.004230,-0.045400,0.026340,0.027140,-0.001819,-0.009971,0.011541,-0.014261,-0.048334,0.016680,-0.022563,-0.020934,-0.016884,-0.075187,0.027140,0.025348,0.003539,-0.017473,0.047001,0.062540,-0.001858,-0.026067,-0.005187,0.040272,-0.038191,-0.023749,-0.015837,-0.009256,-0.060628,-0.034109,0.042440,0.039958,-0.007096,0.022084,0.008958,-0.085268,0.006961,0.114918,-0.015784,0.019689,-0.016212,-0.079847,0.047378,0.010268,-0.003569,-0.042067,-0.057849,0.027269,0.048596,0.010013,-0.061363,-0.022020,-0.040058,0.055309,0.059117,-0.009420,-0.065889,0.100420,-0.017357,0.043822,-0.141394,0.025922,-0.034507,0.019683,0.067219,0.108114,0.071800,0.082755,-0.056436,-0.081079,0.052008,-0.039922,-0.030645,-0.144277,-0.019324,-0.000299,-0.034872,0.069300,0.010932,-0.069598,0.009912,0.000000,0.110916,0.017614,-0.048612,0.018835,-0.010564,0.071333,0.041680,0.129042,-0.018578,0.070087,0.015401,-0.010366,0.028244,-0.037945,0.175306,0.086742,0.020581,0.094164,-0.062444,-0.043811,0.014579,-0.001890,-0.023171,0.072494,-0.039800,-0.034397,0.034169,0.141814,-0.084339,-0.025030,0.106111,-0.007595,-0.080303,0.034626,0.024582,-0.063068,-0.045382,-0.030975,0.015991,-0.047881,0.026237,0.038753,-0.042114,0.016633,-0.046765,0.006443,-0.049537,0.040815,-0.001016,-0.095937,0.025314,-0.027986,0.019733,0.013310,-0.027275,0.048492,-0.001605,0.062976,0.056930,0.008334,-0.020319,-0.041136,-0.002403,0.053657,0.019024,-0.064691,-0.029437,-0.008360,-0.065485,-0.029180,0.053856,0.032790,-0.101569,-0.072428,-0.024805,0.068713,0.038772,0.004254,-0.028327,-0.029522,-0.050400,0.007053,-0.013429,0.022666,0.007276,0.048349,-0.017106,-0.018904,-0.044776,-0.012083,0.020971,0.003213,-0.062099,0.100074,0.030403,-0.000000,-0.004863,-0.041412,-0.037809,-0.007097,0.064229,-0.026957,-0.066513,-0.022697,-0.079143,0.053077,0.067125,0.012297,-0.077952,0.029081,0.013689,0.027092,0.102239,0.032946,-0.019489,-0.063183,0.075630,0.000578,0.083827,0.003882,-0.059587,0.012303,-0.042025,0.057309,0.049281,-0.020717,0.056642,0.062235,-0.010832,0.019477,0.027227,0.056977,0.041084,-0.014468,0.003589,-0.027191,-0.012473,0.055862,0.030069,-0.017767,-0.027643,-0.068348,0.082803,-0.118102,-0.010345,-0.062068,-0.016919,-0.001562,0.007450,-0.058273,0.100008,-0.017824,-0.003142,0.022840,-0.050677,0.031963,0.114621,0.027460,-0.047029,0.009880
-0.093659,0.087642,-0.028976,0.019963,-0.048494,-0.010635,-0.018868,-0.094831,-0.019706,-0.013306,0.050446,0.023185,0.029043,-0.058755,0.031611,0.061163,-0.077518,0.043432,-0.077629,0.022651,-0.059276,-0.003839,-0.051508,0.008806,0.020745,-0.009859,0.064603,0.051418,0.037581,-0.086799,-0.006203,0.023480,0.025279,0.013749,0.055280,0.120972,0.008754,-0.000844,-0.085269,-0.008926,-0.009659,-0.037665,-0.026561,0.018043,0.004213,0.026278,-0.106790,-0.008514,-0.000746,-0.090029,-0.019432,0.039516,-0.012903,0.090532,0.063071,0.013426,-0.062577,-0.070986,0.014577,0.011222,0.003789,0.027057,-0.085310,0.099674,0.064408,0.067304,-0.046806,0.008368,0.020680,0.103903,-0.036059,-0.042449,0.053083,0.025797,-0.033991,0.033926,-0.031985,0.071258,0.008065,-0.017445,0.024057,-0.033890,-0.045627,0.016763,0.007712,0.051858,-0.082441,-0.020486,0.057178,0.036511,-0.030100,0.014366,0.132605,0.029211,-0.050810,-0.051716,0.027042,-0.002987,-0.094711,0.093945,0.034588,0.052634,-0.010368,0.028114,-0.062624,-0.060719,-0.002083,0.001742,0.004628,-0.045405,-0.053675,-0.043544,0.004069,-0.048089,-0.001049,-0.050032,-0.014662,-0.052574,0.052520,0.072780,0.008115,-0.055493,-0.115469,0.093029,-0.013827,-0.028888,0.027379,-0.000000,-0.006887,-0.042057,0.017062,-0.083515,-0.026997,0.028577,-0.091729,-0.050138,-0.042734,-0.032170,0.059998,0.033690,-0.023199,0.017477,0.002632,-0.037188,0.048830,0.049722,-0.008069,-0.029936,0.033160,0.015735,-0.053188,-0.020381,-0.026896,0.001228,-0.030262,-0.063229,0.007092,0.034150,-0.007069,-0.029396,-0.022747,0.030652,0.004755,0.016421,-0.059005,0.033482,-0.000112,0.010082,-0.039487,-0.044656,-0.078064,-0.019314,0.017159,-0.002496,0.003033,-0.002598,-0.010957,-0.064033,0.042057,0.077766,-0.037919,0.001866,0.036769,-0.029316,0.062969,0.040160,-0.004900,-0.013802,-0.066301,0.021004,0.036982,0.000017,-0.026662,-0.000581,-0.054502,0.037926,0.050606,0.012805,-0.081580,0.083918,-0.008847,0.059059,-0.132828,0.020431,-0.064436,0.012847,0.064829,0.100012,0.054442,0.072018,-0.048281,-0.039577,0.046057,-0.061269,0.006337,-0.091932,0.026036,-0.038025,-0.037748,0.051624,-0.010184,-0.071046,-0.015345,0.000000,0.030565,-0.026324,-0.060375,0.045327,-0.005174,0.090208,0.088486,0.089452,0.002524,0.104777,0.069122,0.008118,0.006498,-0.062379,0.157696,0.083172,-0.001581,0.122126,-0.025932,-0.040145,-0.036882,-0.040837,-0.007003,0.055216,-0.032486,0.006180,0.063797,0.154523,-0.079292,-0.021310,0.119317,-0.025497,-0.089616,0.012664,-0.002427,-0.095202,0.003971,0.017959,0.007713,0.008338,0.038382,0.056174,-0.020000,0.110848,-0.040097,-0.006864,-0.055487,-0.007748,0.058165,-0.104802,0.039572,-0.006144,0.021782,0.027953,-0.011799,0.071598,-0.007917,0.072858,0.059882,0.004025,-0.011431,-0.029252,-0.002651,-0.001544,0.069872,-0.086729,-0.000914,0.008476,-0.068229,-0.039293,0.066824,-0.012351,-0.106695,-0.083171,-0.038247,0.005222,0.027976,0.000860,-0.061031,-0.074246,-0.043262,0.001528,0.000128,-0.002133,0.009499,0.005236,-0.032926,-0.026512,-0.029594,0.023536,0.005656,0.026619,-0.048978,0.068169,0.027119,-0.000000,-0.028541,-0.055796,0.009727,-0.044226,0.045604,-0.044234,-0.064235,-0.013429,-0.068153,0.025698,0.100483,-0.027887,-0.064816,0.001123,-0.018023,-0.021196,0.148704,0.027929,-0.010139,-0.056678,0.081044,0.042402,0.069658,0.044550,-0.040586,0.019006,-0.056793,0.056624,0.041185,-0.051304,0.054876,0.016009,0.028163,-0.028007,0.062824,0.046454,0.012066,0.009772,-0.035504,0.003829,0.035801,0.020772,0.027640,0.038683,-0.071877,-0.046020,0.078001,-0.128732,-0.017634,-0.114400,-0.029116,-0.004542,-0.029840,-0.068461,0.030741,-0.015947,0.010136,0.015416,-0.037993,0.036512,0.124599,-0.000460,-0.049131,0.014705
-0.069129,0.125995,-0.057246,0.029058,-0.006004,-0.028651,0.005124,-0.061870,0.022738,-0.006438,0.030450,-0.044211,0.044811,-0.071773,-0.040303,0.049227,-0.039597,0.026601,-0.058003,-0.012859,0.017195,0.033301,-0.049602,0.006718,0.029054,0.021114,0.035024,0.056940,0.051208,-0.067598,-0.000845,0.023218,0.043155,0.028587,0.025670,0.111818,-0.007359,-0.022010,-0.089320,-0.012690,-0.001418,-0.057896,-0.012482,0.029024,-0.003926,0.037554,-0.116975,-0.037093,0.025790,-0.090164,-0.037885,0.032495,-0.069927,0.044060,0.050848,0.009626,-0.073375,-0.085656,0.040245,0.000988,0.014427,0.044447,-0.044192,0.031090,0.017468,0.060183,-0.053556,0.018019,-0.009030,0.030491,-0.048975,-0.023071,0.028892,0.052486,-0.014535,-0.013987,-0.022637,0.050619,0.024273,0.009391,0.018897,-0.017061,-0.049721,0.022055,0.008575,0.090312,-0.097046,-0.042825,0.059555,0.023814,-0.059383,-0.006119,0.102938,0.040329,-0.061641,0.003544,-0.005498,0.008925,-0.097978,0.153382,0.030246,0.041955,-0.006384,0.040972,-0.078500,-0.065486,0.031073,0.016276,0.026297,-0.047287,-0.046812,-0.044389,-0.033777,-0.033120,-0.025775,-0.049084,-0.020731,-0.050916,0.061033,0.092636,0.010157,-0.054314,-0.159096,0.047866,-0.027147,-0.038336,0.014697,-0.000000,-0.005989,-0.042648,0.061792,-0.091783,0.009283,0.017124,-0.101886,-0.076151,-0.063353,-0.015152,0.101341,-0.024433,-0.038316,0.024623,0.012179,-0.074596,0.041888,0.081087,-0.006086,-0.007672,0.003057,0.028542,-0.057748,-0.013737,-0.042346,0.024832,-0.046095,-0.048574,-0.017884,0.036425,0.007371,0.004234,0.012827,-0.001975,0.014884,-0.001440,-0.040021,0.006854,-0.006363,-0.013720,-0.051565,-0.077770,-0.074553,-0.039713,0.040275,0.034739,-0.002282,0.009531,0.010590,-0.066761,0.024649,0.092436,0.037118,0.025571,0.031034,-0.051078,0.055774,0.020708,-0.040835,-0.024613,-0.070699,0.036310,0.011896,-0.001859,-0.003823,0.009390,-0.043600,0.042098,0.034980,0.026903,-0.086066,0.081520,0.012143,0.108956,-0.147348,0.016020,-0.093167,0.027501,0.033424,0.125272,-0.000431,0.029643,-0.062750,-0.070205,0.043640,-0.036828,-0.037061,-0.084959,-0.029093,0.013146,-0.060085,0.050789,-0.001149,-0.053875,0.043445,-0.000000,0.065246,0.024689,-0.060143,0.054483,0.018661,0.070590,0.076733,0.066719,0.036196,0.144814,0.019784,0.028049,0.053763,-0.058864,0.160261,0.103904,0.013194,0.102621,-0.031994,-0.027083,0.004423,-0.000167,-0.006785,0.093883,-0.024616,-0.017490,0.031290,0.132015,-0.040166,-0.005248,0.082224,-0.011507,-0.057434,0.017563,0.009163,-0.060019,-0.038077,0.011186,0.008921,-0.030791,0.058910,0.043087,-0.016090,0.010036,-0.050533,-0.003984,-0.058845,0.009615,0.049149,-0.101240,0.030137,-0.054698,0.004679,0.002456,-0.030606,0.085279,-0.015898,0.062976,0.071287,0.016342,-0.019928,-0.026706,-0.045789,0.039510,0.030875,-0.094003,-0.013165,0.038353,-0.094400,-0.030024,0.074710,0.034961,-0.119779,-0.096735,-0.023139,0.024118,0.027135,0.016720,-0.047723,-0.045488,-0.002739,0.016296,-0.013193,0.032172,-0.033773,0.010564,-0.025210,0.014330,-0.063090,-0.000050,-0.017935,0.010229,-0.064286,0.080041,0.020578,-0.000000,-0.034540,-0.090861,-0.030601,-0.059452,0.075536,-0.026006,-0.052402,-0.034244,-0.071694,0.007860,0.060196,-0.007437,-0.053042,0.008483,-0.012531,0.007370,0.078011,0.042490,0.019133,-0.017295,0.064064,-0.017114,0.083286,-0.002980,-0.048656,0.037231,-0.056562,0.065307,0.029833,-0.032836,0.055122,0.035557,-0.004764,-0.034929,0.032634,0.091949,0.016515,-0.016651,-0.014278,-0.027839,0.006341,0.042945,0.049470,0.036893,-0.076239,-0.039741,0.061329,-0.073974,-0.047052,-0.086464,-0.027799,-0.008888,0.016416,-0.049394,0.019652,-0.016684,-0.016838,0.017673,-0.033565,0.061328,0.126009,0.049486,-0.050998,0.031480
-0.005473,-0.033395,0.029441,0.029966,0.102029,-0.007826,-0.017378,0.082022,0.027089,0.004770,0.001751,0.040772,0.015391,0.022478,-0.023671,-0.036308,0.046793,-0.123886,-0.007532,0.038753,0.001005,0.049069,0.047030,-0.010810,0.053765,0.022789,-0.082304,0.081722,0.028885,-0.030403,-0.052654,0.082418,0.019142,-0.038184,-0.021753,0.047275,-0.072643,-0.008538,-0.008985,-0.012329,0.003810,0.001544,0.016161,0.030778,0.023704,0.073638,-0.044946,0.046532,-0.012183,0.030869,0.058806,0.035001,-0.040433,0.033860,0.039440,0.110626,-0.066423,-0.007755,0.015912,0.019654,-0.020151,-0.010983,-0.086233,0.025202,0.147644,-0.015038,-0.040424,-0.025135,-0.046538,0.000864,-0.120822,0.000794,-0.011026,-0.041641,-0.047883,0.011903,0.029726,0.044349,0.051594,-0.018519,-0.023663,-0.034160,-0.003301,-0.055264,-0.073146,-0.038380,-0.003575,0.033377,0.066441,0.059052,0.003061,0.027718,0.011967,0.014783,0.056258,0.050870,-0.025166,0.050222,0.030494,-0.043717,0.040887,0.070217,-0.069718,-0.034701,-0.071435,-0.059429,0.039985,0.114456,0.021982,0.123404,-0.018188,0.078919,0.037716,0.004654,0.024037,-0.054034,0.008160,-0.043156,0.063427,0.002108,-0.009127,-0.030350,-0.001007,-0.066964,-0.024051,0.083911,0.054049,-0.000000,0.052991,0.004626,-0.028869,-0.090102,-0.025199,0.002806,-0.104065,-0.048896,0.060740,-0.013234,-0.087535,-0.038710,0.039113,0.010425,-0.001671,-0.018428,-0.008491,0.101358,-0.052151,-0.019933,0.016283,0.045526,0.009616,0.031657,0.052543,-0.017019,0.004355,0.000362,-0.080163,0.002274,-0.082110,0.034225,-0.076288,-0.055987,0.044755,0.081820,0.136766,0.044515,-0.055147,-0.029301,-0.003966,0.040351,-0.015607,0.026864,0.016833,-0.046057,0.025734,-0.095728,-0.059568,-0.030135,-0.044767,0.038781,0.001765,-0.082676,0.026690,0.056839,0.007271,0.044558,0.022288,0.154062,0.061826,0.028497,0.074585,-0.097538,0.042890,-0.004989,-0.053751,0.027476,-0.068452,-0.006572,0.018169,0.012851,0.062685,0.016509,0.018780,0.030778,0.049687,0.057209,0.014143,-0.040698,-0.153100,-0.028806,-0.049447,0.009163,0.036181,0.007291,0.014971,-0.028651,-0.061564,-0.082227,-0.039603,-0.062550,0.032769,-0.030178,-0.019971,0.000000,0.002632,0.079403,-0.036408,0.075138,-0.018903,0.018360,0.037488,0.165474,0.026364,-0.035077,-0.091252,0.010375,-0.030929,-0.017163,-0.012738,-0.043111,-0.001207,-0.050289,-0.084623,0.014127,0.027780,0.005014,0.001770,0.076131,-0.037513,0.093727,-0.064326,0.013952,-0.103150,-0.072556,0.011796,-0.053465,-0.066333,0.043045,-0.059207,0.034775,0.016138,0.007751,-0.073167,-0.018855,0.052602,0.018017,-0.126452,0.015096,0.016250,-0.026614,0.071616,-0.040108,-0.023837,0.049774,0.062095,-0.052621,-0.048928,0.051389,-0.003172,0.005395,0.063378,-0.061474,-0.108262,-0.025215,0.036869,0.081586,-0.037458,0.041595,0.093289,0.015199,0.061951,0.020269,-0.003797,0.016762,0.015273,0.082175,-0.045180,-0.016661,0.071925,0.031710,-0.000358,-0.023554,-0.070125,0.022732,-0.044090,-0.014722,-0.027791,-0.026945,0.054731,-0.071201,0.016508,-0.080518,0.034981,0.002607,-0.089959,-0.065061,-0.090571,-0.002518,-0.039315,-0.000000,-0.025124,0.029920,-0.071420,0.039917,0.015298,0.023038,-0.041144,0.042302,-0.070799,-0.024128,0.095799,-0.037835,-0.045106,-0.012277,0.001854,-0.033796,-0.000582,0.081005,-0.087243,-0.073403,-0.048593,0.051721,0.020449,0.018070,0.068611,0.056235,-0.039158,0.094667,0.026732,-0.058259,-0.056424,0.011096,0.020695,-0.000086,0.019757,-0.012647,0.062850,-0.002313,0.057664,0.002508,-0.058950,-0.035509,0.041827,0.064709,-0.038469,0.012203,-0.079233,0.069028,0.023842,-0.129054,0.025243,0.016607,-0.032058,0.065975,0.036327,0.007229,-0.055802,-0.067129,-0.006163,-0.004034,0.064981,-0.029286,-0.027517,-0.023366
0.069561,-0.025775,0.059743,-0.020180,-0.002911,0.001952,-0.065820,-0.023536,-0.087682,-0.023942,-0.037775,0.101925,0.026709,-0.013634,0.015545,-0.028280,0.152702,-0.007582,-0.002203,-0.064716,-0.056800,-0.006985,0.086891,-0.005526,0.075574,-0.021195,-0.055257,-0.044199,0.029557,-0.040603,-0.023920,0.054799,0.043580,-0.004672,-0.054043,0.000244,0.023344,0.033758,-0.020858,0.001551,-0.020845,-0.053964,0.002468,-0.042668,0.009781,0.049989,0.034022,-0.025850,0.004144,-0.043715,-0.031888,-0.015477,0.033091,-0.036194,0.042536,0.072897,-0.028973,0.023403,0.057071,-0.042057,0.057715,0.001272,0.000278,0.086368,0.042920,-0.068167,-0.005805,-0.026310,-0.058732,0.048818,-0.003171,0.044854,0.010666,0.003441,0.002681,0.010677,-0.046385,0.002424,0.090188,-0.013208,0.101374,-0.077415,-0.040947,0.041724,0.037637,-0.045572,-0.002595,-0.188514,-0.075048,0.020111,0.005295,0.044932,-0.113687,0.018638,-0.036492,0.014362,0.009369,-0.046851,-0.140436,0.120967,-0.021976,0.080161,-0.036548,-0.063322,0.008196,-0.003077,0.074921,0.093573,-0.094831,-0.004133,0.070394,0.074270,-0.118403,0.009340,0.019805,0.022664,0.044806,0.038060,0.029482,0.097674,0.129913,-0.068211,0.045359,0.020218,-0.066192,-0.035961,-0.009418,-0.000000,-0.022928,0.074400,0.026553,0.032470,-0.021507,0.016582,-0.023409,-0.024186,0.015980,-0.032015,-0.021360,0.014409,-0.034439,0.007777,0.095564,-0.164831,-0.074482,0.017214,0.021648,0.069793,0.015938,-0.016698,-0.018635,-0.051000,0.057142,0.068307,0.072156,0.006963,-0.033053,0.006188,0.038780,-0.001759,-0.047743,0.040637,-0.040553,-0.024947,0.050685,0.006384,0.049895,0.015570,-0.028036,0.002630,-0.023281,-0.035020,0.042642,0.067205,0.031567,-0.057872,-0.087917,0.018340,0.035811,0.029182,0.005859,0.015829,-0.009128,0.020088,0.022029,0.028128,0.017384,0.025902,-0.000268,-0.029008,-0.044032,0.011439,0.053762,0.073057,0.122606,-0.024408,-0.002759,-0.029064,-0.029495,-0.061576,0.009032,0.019857,0.037763,-0.031937,-0.078746,0.010171,0.069251,0.010060,0.013200,-0.025660,0.033939,-0.076849,0.032346,-0.020686,-0.023075,0.005922,0.074677,0.029731,-0.029357,-0.002845,-0.050112,0.081590,-0.015156,0.000000,-0.033409,-0.020683,-0.005508,0.133827,-0.093626,-0.037416,0.069316,0.028793,-0.021104,0.001164,-0.028548,0.057384,-0.030811,0.037791,0.080725,0.054494,-0.021941,-0.017514,-0.027296,-0.022488,-0.017693,0.116221,0.042398,0.011839,0.017244,0.001966,-0.146430,-0.013030,0.010985,-0.012861,0.037878,-0.014997,-0.120649,0.043696,0.035175,0.043210,0.030808,-0.065291,-0.107580,0.021926,0.047043,0.004612,-0.072433,0.011316,0.030727,-0.016680,-0.012714,0.012640,0.013246,0.092353,0.062971,-0.054433,-0.086615,-0.039443,-0.006526,-0.067692,-0.067018,-0.039458,-0.012423,-0.037501,-0.044195,0.030945,-0.073887,-0.012264,0.097336,0.008945,-0.029271,0.042554,0.105345,-0.020420,-0.019624,-0.130777,-0.115722,0.013195,-0.006166,0.042942,0.068003,0.005380,-0.017558,-0.025830,-0.090130,-0.041461,0.003086,-0.050311,-0.024169,0.000695,-0.005547,0.017792,-0.028036,0.097734,-0.037179,-0.005836,-0.034583,-0.032378,-0.016151,-0.000000,-0.011210,-0.035203,-0.078498,0.038512,-0.005331,0.010784,-0.007915,0.140903,-0.000872,-0.029780,0.087439,-0.000467,0.028403,0.017491,0.062890,0.014789,0.046361,0.010082,-0.041215,-0.013815,-0.030631,0.096461,0.012021,-0.029637,-0.030538,0.016858,0.029836,-0.000448,-0.022919,-0.040684,0.053286,-0.001950,0.013788,0.095287,-0.027327,-0.012150,0.021317,-0.001368,0.023452,-0.046720,-0.055503,0.049008,-0.046282,0.031323,0.001059,-0.076404,-0.016123,-0.001380,-0.030070,-0.106168,0.105948,0.066423,0.000016,-0.028206,0.071362,0.027842,-0.010498,0.011017,-0.025028,0.032193,-0.015085,-0.102359,0.069919,0.041545
-0.036276,0.036765,0.087847,0.004867,0.093741,-0.035551,-0.012455,-0.021558,-0.099864,0.047079,-0.076730,0.036852,-0.010251,-0.039984,0.025773,0.009163,0.086660,-0.025119,-0.028770,-0.004670,-0.042611,0.059871,-0.000316,0.020815,-0.012322,-0.003653,-0.074058,-0.003888,0.046362,-0.109497,0.021601,0.090503,0.012575,-0.013267,0.003030,0.136242,-0.107532,-0.046101,-0.054694,0.008716,-0.016780,-0.038158,0.011245,0.054321,-0.006570,-0.074905,-0.022701,-0.101930,-0.032776,-0.070997,0.006033,-0.102941,-0.038441,-0.016519,0.012587,0.049228,-0.047713,-0.036502,0.039230,-0.031515,-0.014988,0.005459,-0.064839,-0.003763,0.104392,-0.038770,0.027828,-0.006205,0.038354,0.054745,0.068987,0.037777,0.011353,0.005910,0.063403,0.050912,-0.013896,0.142802,0.007497,-0.124011,0.071848,-0.010283,-0.033085,-0.078238,-0.012747,0.024983,-0.092240,-0.000186,0.012763,-0.014112,0.041803,-0.047907,0.001213,0.078920,0.012441,0.012760,-0.003061,-0.022091,-0.018924,0.035114,0.037830,0.078469,-0.017070,-0.043782,-0.052665,-0.084775,-0.014722,0.074253,-0.029714,0.027660,-0.039718,-0.019670,-0.011286,0.008295,-0.032538,0.022140,-0.010446,-0.040940,0.026814,0.003642,-0.083239,-0.031372,-0.084056,0.047906,-0.006151,0.045443,-0.114524,-0.000000,0.015555,-0.005115,-0.062974,0.019613,-0.038926,-0.036726,-0.055320,-0.063846,-0.021745,-0.024760,0.010365,0.071666,-0.037033,0.102365,0.003592,-0.181146,-0.026243,0.111942,-0.080018,-0.020941,0.016716,0.028017,-0.081526,-0.042449,0.045825,0.062085,-0.024916,-0.029799,-0.026889,0.038950,-0.045935,0.011113,-0.050381,0.073262,0.051451,0.044405,-0.011204,-0.062250,-0.010847,-0.071709,0.054809,0.008925,-0.093654,-0.072781,0.022374,0.003349,0.044457,0.005331,-0.026641,-0.092379,0.079057,0.067208,-0.016405,0.031268,0.063171,-0.001419,0.041522,-0.089096,-0.004183,0.002499,-0.011248,0.036430,-0.049223,0.044566,-0.012982,0.092000,0.018301,0.049474,-0.029587,0.022991,-0.056835,0.017184,0.018599,0.020457,-0.037493,-0.000565,-0.034859,-0.034880,0.086263,0.113424,-0.013422,0.049126,-0.063127,-0.126477,-0.029415,-0.038061,0.074422,-0.051829,-0.008701,-0.030588,-0.028053,-0.016893,-0.034564,0.021384,-0.053796,-0.000000,-0.031684,-0.036329,0.046618,0.103038,0.020924,0.002072,0.030036,-0.018001,0.042903,-0.008328,-0.000523,0.000302,0.021180,-0.059668,0.004418,-0.029377,-0.012576,-0.019158,0.029614,0.001470,0.057104,-0.034782,-0.087958,0.006137,-0.013252,0.019709,-0.056510,0.013564,-0.047308,0.000704,0.024516,-0.003018,-0.056546,-0.027630,-0.017546,0.023254,0.053746,0.077380,-0.073193,-0.053462,0.043637,0.027581,-0.078144,0.024824,-0.058404,0.037549,0.044050,0.131989,-0.017873,-0.031207,0.041504,0.002288,0.035142,-0.020688,-0.045991,0.096688,0.040326,-0.005398,0.025179,0.020970,0.047556,0.025579,0.002445,-0.017008,0.001985,-0.014099,-0.006250,0.022147,-0.079722,0.056203,-0.019667,-0.000796,-0.067707,-0.022460,0.000065,0.011251,0.035725,-0.014243,-0.014623,-0.035924,-0.013501,0.022154,-0.003283,0.060710,0.133152,0.079067,-0.084567,-0.047283,0.004312,-0.003143,-0.024113,-0.082701,-0.065564,0.100917,-0.067284,-0.000000,-0.014714,0.076049,-0.033732,-0.005056,0.081693,-0.007900,0.043847,0.081875,0.004644,0.041122,0.001811,-0.005286,-0.037019,0.027470,0.037153,0.027812,0.044725,0.053339,-0.053209,-0.011516,0.090954,0.010499,0.084789,-0.030676,0.027406,0.050135,-0.013145,0.047287,0.029413,0.044409,-0.019608,-0.004873,-0.019443,0.020240,0.077894,0.112738,0.027949,0.003980,0.000483,-0.028287,-0.051798,0.097255,0.051796,0.061666,-0.044578,-0.008762,-0.152413,0.023248,-0.065557,-0.031384,0.005452,-0.014846,-0.030551,-0.006724,0.133687,0.065936,-0.014133,-0.032620,-0.077535,0.019996,0.055990,-0.103699,-0.027760,0.064852
-0.013509,0.017784,0.068068,-0.003468,0.082593,-0.013168,-0.100595,0.074361,0.004264,-0.067134,0.043768,0.152174,0.016109,0.063046,0.011707,-0.034288,0.088434,-0.063415,-0.029344,0.010028,-0.060294,-0.022694,0.063419,0.043508,0.072274,0.012692,-0.048931,0.072314,0.015827,-0.037203,-0.001463,0.100469,0.027920,-0.076630,-0.033979,0.069959,-0.015148,0.071361,-0.020045,-0.030327,-0.012883,0.011023,-0.017566,-0.030430,0.030424,0.001350,-0.021458,0.003541,0.040045,0.029275,0.042324,0.030466,0.008324,-0.045856,0.007367,0.060119,-0.039211,-0.063433,-0.045173,0.049316,-0.068912,0.019497,-0.017149,-0.014176,0.032477,-0.035449,0.032482,-0.103380,0.027465,0.002316,-0.096425,0.025167,0.041775,-0.027367,-0.046893,-0.013858,0.034327,0.076481,0.073464,0.043414,0.002699,-0.048440,-0.037346,0.025249,0.004493,-0.044502,0.027526,-0.094055,-0.026870,0.050493,0.036241,0.041154,0.018746,-0.047999,-0.007449,0.030964,-0.043194,0.071421,0.000150,-0.024310,-0.026415,0.037562,-0.006069,-0.038021,-0.003049,-0.032829,0.084543,0.056274,0.016581,0.039562,0.065128,0.104573,-0.000122,0.093496,-0.034386,0.095346,-0.020241,-0.026997,0.065854,0.054160,0.067448,-0.063613,0.010863,-0.048756,-0.017267,0.086263,0.017714,-0.000000,0.026452,0.066771,-0.016322,-0.036016,0.031054,-0.042562,-0.073464,0.009571,0.046482,-0.017214,-0.063823,0.006535,0.063666,0.009853,-0.061517,-0.069498,-0.102331,0.093620,-0.036354,0.022806,0.067009,-0.030505,0.024455,0.096739,0.076857,-0.004996,0.047306,-0.011971,-0.032502,-0.029485,-0.076082,0.054637,-0.026158,-0.037386,0.010017,0.077690,0.084128,-0.062329,-0.035496,0.036017,-0.033728,0.098164,0.015568,0.021161,-0.010479,-0.021075,-0.019525,-0.082689,-0.071356,-0.025248,-0.061900,0.054902,0.014986,-0.066184,-0.024278,0.030206,0.023241,-0.020931,0.056352,0.053774,-0.009618,0.005463,0.062598,-0.023284,0.007077,0.067463,-0.017613,-0.001240,-0.098197,0.043113,-0.032009,-0.026098,0.021241,-0.026171,-0.029971,-0.008109,0.044800,-0.016726,-0.008547,-0.020508,-0.100966,-0.040785,0.046476,-0.002307,0.068762,-0.025571,0.036501,-0.046866,-0.003088,-0.065800,-0.046010,-0.027773,0.029756,-0.033949,0.021579,0.000000,-0.015835,0.005002,0.054481,0.023928,0.011322,-0.026268,0.029211,0.105101,-0.015961,-0.029890,-0.021894,0.080443,-0.050813,0.027281,-0.024154,-0.020956,0.038009,-0.034541,-0.017102,0.044225,0.087874,0.101267,0.012131,0.042880,-0.031876,0.047293,-0.094291,0.001717,-0.034252,-0.033105,0.003122,0.005888,-0.097747,-0.043369,-0.026607,0.044174,-0.044079,0.027837,-0.015655,0.018227,0.077678,-0.040604,-0.140837,-0.003209,0.074117,0.002199,0.101240,-0.033296,-0.011604,0.049966,0.035067,-0.045404,-0.024099,0.025290,-0.000770,-0.060046,0.104222,-0.102479,-0.152258,-0.045951,-0.073178,0.097486,-0.010356,0.015573,0.099051,-0.012598,0.042980,-0.043903,-0.043479,-0.002479,-0.007217,-0.073386,-0.041652,0.087673,0.000098,0.014031,-0.032594,0.022245,-0.061436,0.079987,-0.074045,-0.076310,-0.004225,-0.061079,0.027611,0.012507,-0.035397,-0.032962,-0.000001,0.045450,-0.101319,-0.046375,-0.080486,0.038220,-0.031539,-0.000000,0.035106,0.028609,-0.020380,0.115316,0.001544,-0.017465,-0.028259,0.099110,-0.083333,0.005645,0.117241,0.033122,-0.006254,-0.001600,-0.001546,0.020676,-0.008263,0.046892,-0.066668,-0.001278,-0.136523,0.029145,0.065542,0.045213,-0.023809,0.078546,-0.016187,0.095705,-0.006537,-0.055591,-0.062101,-0.025899,0.048294,0.047269,0.049193,-0.021042,0.009791,0.003079,0.074557,-0.018644,-0.076610,-0.046173,0.002968,0.063212,-0.002961,-0.022040,-0.120260,0.027486,-0.001487,-0.033749,0.041129,0.073324,0.037689,0.051705,0.084535,0.041467,-0.031518,-0.047066,0.004568,0.025241,0.034595,-0.076777,0.047924,-0.000587
0.052685,-0.007860,-0.010897,0.009437,0.073454,-0.048170,-0.022848,0.037039,0.042527,-0.045895,0.030853,-0.009370,-0.013349,0.011797,-0.047353,-0.032602,0.015873,-0.075963,-0.056702,0.079559,-0.057041,-0.005875,0.109048,0.035696,0.074203,0.000161,-0.024625,0.046622,-0.040470,0.018862,-0.006495,0.078876,0.029901,-0.075395,-0.014040,0.031983,-0.030434,0.015961,0.031040,-0.004959,0.005641,0.043263,-0.100661,-0.012389,0.020817,0.020651,-0.087221,-0.003231,-0.021940,0.063763,-0.000153,0.086389,-0.011354,-0.000044,0.018621,0.077647,-0.020498,-0.066540,-0.022268,0.011458,-0.031911,-0.010158,0.030078,-0.018735,0.040560,-0.041657,0.006772,-0.060531,0.007747,0.034790,-0.119925,-0.030023,0.044603,-0.024848,-0.048365,-0.025872,0.027489,0.058799,0.062276,0.041473,0.002707,-0.085009,0.028963,-0.009009,-0.049743,0.009200,0.013325,-0.013483,-0.009966,0.058518,-0.047514,0.007663,0.025223,-0.052196,0.059099,0.093180,-0.049827,0.066345,-0.056807,-0.029773,-0.020894,0.036155,0.012980,-0.075071,-0.067795,-0.077164,0.058947,0.114370,0.021281,0.061753,0.068912,0.054700,0.019442,0.053085,0.011110,-0.036680,0.023579,-0.030451,0.090061,0.048615,0.024365,-0.028629,-0.018224,-0.020636,-0.008082,0.037699,-0.010865,-0.000000,0.082123,-0.014509,-0.010210,-0.082722,-0.008884,-0.006417,-0.035347,-0.006448,0.124889,-0.023180,-0.080423,-0.045659,0.068033,0.008742,0.034356,0.015998,-0.078476,0.113091,-0.039318,-0.057979,0.025922,0.004835,0.017950,0.039195,0.008195,0.024997,-0.012037,-0.018421,-0.076527,-0.058002,-0.082538,0.111637,-0.013361,-0.087296,-0.001225,0.044666,0.089608,0.044676,-0.032838,0.010339,-0.024576,0.114429,0.005036,0.020600,-0.004677,-0.094041,0.045085,-0.110607,-0.128087,-0.024179,-0.056423,0.078946,0.066801,-0.050699,-0.075504,0.030096,0.028531,0.035661,-0.031717,0.050230,0.022685,-0.003797,0.030257,-0.078798,-0.040216,0.046503,-0.073367,0.021325,-0.103151,0.038128,0.035620,0.012416,-0.016184,-0.007839,0.014935,0.039316,0.115832,0.060569,0.034676,-0.065234,-0.062227,-0.072508,-0.027100,-0.016548,0.050552,0.007274,0.090026,0.032086,-0.058178,-0.069242,-0.043894,-0.070408,-0.027013,-0.015763,-0.016231,0.000000,-0.034804,0.055095,0.046262,0.046643,0.006438,0.011775,0.040189,0.073201,0.014996,-0.009129,-0.014203,0.052752,-0.053880,0.024538,-0.032798,-0.044964,-0.016157,0.014488,-0.043759,0.019037,0.072458,0.067002,-0.035304,0.114131,-0.073013,0.049326,-0.098623,-0.027602,-0.035924,-0.076858,-0.004810,-0.063525,-0.038865,-0.068086,-0.031930,0.011480,-0.046015,0.034509,-0.007387,0.058620,0.080826,-0.012038,-0.189902,0.011759,0.038306,-0.013546,0.147925,-0.015939,0.017868,-0.006949,0.041866,-0.014218,-0.005322,0.070524,0.008436,0.035950,0.047955,-0.072782,-0.097833,-0.027287,0.015588,0.088680,-0.043138,0.014537,0.026365,-0.012917,0.030168,0.033221,-0.046465,0.016168,0.036641,-0.020584,0.069394,0.029884,0.048952,0.058224,-0.076331,0.015804,0.009048,0.011514,0.015100,-0.047425,-0.062547,-0.029122,-0.013027,-0.057215,0.028128,-0.071192,0.034322,-0.006757,-0.072892,-0.075226,-0.055194,0.025158,-0.061801,-0.000000,0.027340,0.021536,0.029882,0.046200,-0.002398,0.070996,-0.013933,0.041440,-0.058018,-0.007581,0.095912,-0.012204,-0.093339,-0.048976,-0.005394,0.012193,0.021685,0.104525,-0.021555,0.003499,-0.094457,0.022030,-0.002093,0.021138,0.030220,0.090064,0.001331,0.085240,-0.036124,-0.111331,-0.030039,-0.020328,0.029685,0.032614,0.012442,0.029384,0.036293,-0.010550,-0.039388,-0.012677,-0.103528,0.001318,0.054211,0.069563,-0.017313,-0.027557,-0.122828,0.029954,-0.020136,-0.070269,0.060928,0.012737,0.005537,0.063275,0.017203,0.025853,-0.006963,0.003863,-0.095007,-0.023427,0.084922,0.023897,0.006335,-0.041520
-0.038978,0.003614,0.093050,0.006535,-0.036584,-0.093139,-0.121663,-0.027141,0.002144,-0.095860,-0.050317,0.058831,-0.058590,-0.043038,0.002339,0.022494,-0.013518,-0.002450,-0.049710,-0.004749,0.035490,-0.018526,-0.006352,-0.045636,-0.042394,0.073844,-0.055650,0.019452,0.008857,-0.057656,-0.008013,0.066292,-0.198944,-0.018624,-0.046674,0.028796,-0.036620,0.025309,0.004725,0.045783,0.025144,-0.033019,0.076360,-0.010769,0.070431,-0.035507,-0.039854,-0.078869,-0.063848,-0.077042,-0.063744,-0.022252,-0.064492,-0.004529,-0.023598,0.076261,-0.026178,-0.059106,-0.019126,-0.017304,0.051544,-0.055310,-0.033261,-0.012594,0.038643,-0.101064,-0.050883,-0.006827,-0.039017,0.011025,-0.076781,0.018849,-0.003662,-0.055582,0.021093,0.031671,0.020235,0.024116,0.029085,-0.066844,0.068442,-0.014438,-0.034822,-0.059358,-0.023492,0.025233,-0.039414,-0.092278,0.055815,-0.012750,0.023031,-0.068055,-0.023824,0.021561,0.084099,0.074152,-0.003588,-0.013447,-0.070522,0.007935,0.025246,0.044093,0.000780,0.004517,0.010561,0.034967,0.000732,0.103020,0.057254,-0.011516,0.024291,0.043106,0.045257,-0.053955,-0.113903,-0.071140,-0.035676,-0.007597,-0.043040,-0.028551,-0.069261,-0.006740,-0.002529,0.065427,-0.023013,-0.033360,-0.075339,-0.000000,0.030758,-0.004519,0.008479,0.007803,0.041239,-0.001222,-0.010307,-0.022099,0.019227,0.015771,-0.027024,0.039969,-0.057397,0.059196,-0.024993,-0.037585,0.018182,0.049424,0.051353,0.001640,0.138072,-0.057314,-0.013310,0.017081,0.084750,0.014490,0.049246,0.000807,-0.116228,0.001692,-0.019467,0.042130,-0.038349,-0.004089,0.072041,0.056580,0.009200,-0.000171,0.013955,-0.098810,-0.006090,0.088471,-0.018835,0.102120,-0.017111,-0.012297,0.056137,0.056729,-0.045647,-0.010890,-0.018293,0.055969,-0.115105,0.149264,0.038545,0.021563,0.021287,-0.001834,-0.022339,0.047103,0.027292,0.031774,-0.102254,-0.023286,-0.019577,0.144303,0.027515,0.002124,-0.020199,0.060913,-0.006081,0.004609,-0.013242,0.000521,-0.009700,-0.032987,0.042811,0.006541,0.152550,-0.024904,-0.009720,0.026454,-0.015669,0.037881,-0.031315,-0.020145,0.053215,-0.032555,-0.029560,-0.062135,0.031577,-0.024373,0.002420,-0.021188,-0.026321,0.000000,-0.074604,0.036829,-0.023132,0.063478,0.050861,-0.050296,0.067047,0.016582,0.113799,0.037508,0.022464,0.100757,-0.031426,-0.048759,0.015391,-0.083854,0.042627,-0.130164,0.023094,0.017689,0.022444,0.127976,-0.135276,-0.020228,-0.046251,0.055019,-0.104252,-0.049655,-0.065064,-0.007460,-0.046473,0.030422,-0.008717,-0.024034,-0.054353,0.084126,-0.035579,0.098540,0.013490,-0.053527,0.052927,-0.016248,-0.089393,-0.047974,-0.047705,0.055583,0.055421,0.027608,0.049540,0.024730,-0.015614,-0.011380,-0.062338,0.038093,-0.025736,-0.036435,0.069115,-0.010199,-0.063098,0.016198,0.011394,0.022509,0.029595,0.013592,-0.005308,-0.044211,-0.037108,0.035532,0.061477,-0.054671,0.031742,-0.080333,0.078253,-0.046997,0.026644,-0.049825,-0.016082,-0.017972,-0.034112,0.031708,0.041091,0.071028,0.015592,0.060486,0.126596,-0.031265,0.040975,-0.049515,-0.019469,0.101666,-0.015476,-0.017918,0.026311,0.062980,-0.008965,-0.000000,-0.032184,0.030639,0.027203,0.031121,-0.030724,-0.081319,0.036665,0.071039,0.014413,-0.024131,0.027479,-0.040397,-0.027817,0.012860,0.073428,0.094493,-0.008800,0.016626,-0.048535,-0.042320,-0.053265,0.034580,0.045285,-0.008749,0.042276,0.064858,-0.024776,-0.069300,-0.029561,0.010186,-0.026243,0.037702,0.036253,0.108587,0.043183,0.072668,-0.058321,0.058313,-0.025480,0.010453,-0.083552,0.043543,0.031618,0.090652,0.003431,0.044703,-0.061004,0.009828,-0.025906,0.062294,0.011523,0.057099,-0.010679,-0.002290,0.103398,0.007910,-0.054982,-0.012601,-0.030387,-0.001526,0.018351,-0.034313,-0.010487,-0.015555
0.054632,0.011558,-0.012606,-0.015732,0.140153,0.021926,0.042763,-0.055810,0.006434,-0.052195,-0.016676,0.096372,-0.006497,-0.091395,-0.018293,-0.045361,-0.069797,-0.051603,-0.005241,-0.002553,0.079916,0.007726,0.082938,0.016055,-0.018320,0.040086,-0.009931,-0.004827,-0.028872,-0.018260,0.019821,0.060905,0.044013,-0.017710,0.044496,-0.024326,-0.009860,0.012674,0.022868,-0.005723,-0.010569,0.031000,-0.012167,0.035943,-0.002531,0.026773,-0.012948,-0.029446,-0.021408,-0.045617,-0.053167,-0.042840,0.016750,-0.097212,0.062619,0.115642,-0.028791,0.016119,0.078713,-0.024991,-0.102350,-0.040859,0.060850,0.032914,-0.057636,-0.003213,0.019136,0.004574,-0.003645,0.021295,-0.013538,-0.000771,0.046477,-0.021273,-0.019240,0.025863,0.069921,-0.022541,0.108737,0.006665,0.114012,-0.065356,0.035508,-0.018324,0.028508,0.088246,-0.027246,-0.081643,-0.057089,-0.010863,-0.067561,-0.101791,0.023073,0.048790,0.005483,-0.002883,0.006631,0.130169,-0.038220,0.072287,-0.032744,0.026251,-0.056810,-0.113046,-0.002377,0.012548,0.047960,-0.032403,-0.021699,0.023755,0.020048,-0.035709,-0.053313,0.056912,0.002314,-0.002573,0.044262,-0.041954,0.062293,-0.050138,0.004259,0.012757,-0.115767,0.008474,-0.011763,-0.119071,-0.018337,-0.000000,0.025135,0.015957,0.036423,0.011161,-0.010316,0.030535,-0.017489,-0.031554,0.026682,-0.060980,0.057695,0.006690,0.010643,-0.095028,0.058172,-0.026302,-0.045419,0.073199,0.033548,-0.005845,-0.020556,0.027361,-0.025931,-0.052571,0.051666,0.038925,-0.048015,-0.016571,0.002072,-0.000351,-0.086210,0.086748,-0.023058,0.048750,-0.015711,0.002815,-0.007098,-0.041241,-0.066656,-0.053976,0.014406,0.076831,-0.021807,0.015124,0.026033,0.011819,-0.018705,0.033264,-0.117419,0.007451,0.043420,0.015103,0.046597,-0.074439,-0.031910,0.039844,0.013559,0.013828,0.032894,-0.030799,0.008105,-0.123755,0.018283,-0.003305,-0.017449,0.022019,-0.022487,0.023399,-0.056195,-0.007017,-0.057533,0.006686,-0.008110,0.027779,0.030270,0.003258,-0.010273,-0.015351,0.023816,0.008156,-0.003143,-0.076375,0.010585,-0.098453,-0.008870,-0.001801,0.078883,-0.012480,-0.111359,-0.022120,-0.069670,0.049664,-0.081686,-0.034025,0.050187,0.000000,-0.130477,0.053871,0.025906,0.051571,0.053792,0.010628,0.041466,-0.061247,0.010615,0.017259,0.088793,-0.003422,0.051996,0.020181,0.001788,0.022678,0.025116,0.004497,-0.059657,-0.027290,0.048598,0.023445,-0.001181,0.046760,-0.022718,0.113392,-0.058304,0.001238,-0.068784,-0.037609,-0.049587,0.019288,-0.070410,0.024685,0.020332,0.099530,0.037431,0.024882,-0.022610,-0.001668,-0.075347,-0.021013,-0.020676,0.017192,-0.064728,0.043062,0.109229,0.053110,0.020539,0.042272,-0.114419,-0.036118,-0.089894,-0.078778,-0.027094,0.058924,0.009714,-0.072457,0.041846,0.012909,-0.061195,0.003107,-0.034304,-0.028875,-0.029363,0.020794,0.001133,0.038838,-0.036251,0.035890,0.026839,-0.017710,-0.086025,0.060643,-0.055074,0.019611,-0.020073,-0.014291,-0.070816,0.089407,0.083407,-0.010482,-0.030999,-0.031746,0.071848,0.146585,-0.060762,-0.051134,0.016338,0.089942,-0.084348,-0.045308,0.047500,0.035846,-0.030965,-0.000000,0.016239,0.070030,-0.073597,0.102479,0.041744,0.027336,0.026569,0.020992,-0.028924,0.099380,-0.058824,0.052111,-0.033965,0.065643,0.091025,0.014950,0.052522,0.029696,-0.031357,0.061476,0.009260,0.072235,-0.105457,-0.017582,-0.007318,0.068983,-0.110848,-0.009870,0.024977,-0.000243,0.065201,0.075898,-0.072214,-0.013534,-0.150782,-0.033392,0.009647,-0.010413,0.003089,-0.041051,-0.046490,0.012907,0.041764,0.121993,0.022889,0.063233,-0.069757,0.054358,-0.044053,-0.006653,0.013549,-0.031932,0.080039,0.082354,0.068487,-0.006232,-0.025413,0.038134,-0.048716,-0.024066,0.094366,-0.014509,-0.049973,0.077789
-0.003456,0.013925,0.059583,-0.006933,0.033959,-0.023942,0.012242,-0.025730,-0.019797,-0.019062,-0.034879,0.035095,-0.006908,-0.003490,0.027797,0.082646,0.105151,-0.038058,-0.073042,-0.049357,-0.057832,-0.034448,-0.043882,0.023562,-0.084571,0.047637,-0.042882,-0.002530,0.049773,0.003891,-0.115367,-0.017933,0.064224,-0.018754,-0.068531,-0.039939,0.028987,0.026294,-0.032237,0.023110,0.019796,0.024100,0.073452,0.023525,-0.048782,0.014513,0.070076,-0.044896,-0.083691,-0.007984,0.030329,-0.062907,-0.011424,-0.083612,0.053593,0.130151,-0.013873,0.010452,0.078085,-0.045329,0.011077,0.014255,-0.022626,0.025834,-0.000104,0.050287,0.056019,-0.007171,-0.006678,-0.006528,-0.036338,0.068438,0.036328,-0.042062,-0.038205,0.045876,0.026155,-0.031731,-0.013008,-0.031808,0.030133,-0.047046,-0.030994,0.048238,-0.018898,0.041498,0.034430,-0.011875,-0.099473,-0.009070,0.024390,0.081336,-0.076486,-0.021548,-0.017497,0.058055,0.004971,-0.029790,0.002530,0.041603,0.019280,-0.049575,0.007324,-0.021811,-0.040243,-0.020481,-0.002288,0.068681,-0.046654,0.033937,0.051003,0.028713,-0.065814,0.020539,-0.034138,-0.026210,-0.084657,0.045571,0.089261,0.067020,0.113728,-0.041426,-0.006049,-0.049869,-0.092456,-0.047428,0.000478,-0.000000,0.034291,0.072058,-0.030242,-0.047665,0.044758,0.029634,-0.098665,-0.072551,-0.037129,-0.053432,-0.092239,-0.027351,-0.088295,-0.027956,0.037725,-0.054009,-0.003196,0.010715,-0.074400,0.015602,-0.051226,0.003215,0.007038,-0.028083,0.103211,-0.012055,0.030820,0.018970,-0.020201,-0.027019,0.088410,0.057285,-0.057475,0.030318,-0.067159,0.018431,0.038847,0.008609,0.062483,0.059511,-0.037040,0.043593,-0.016003,0.065826,-0.002276,0.040909,0.074733,-0.055897,-0.054545,0.024625,-0.027453,0.020086,-0.008860,-0.063896,-0.005528,0.006728,0.083403,0.057682,-0.035493,-0.006773,0.019702,0.023307,0.011654,-0.058197,0.015800,0.059452,0.015232,0.098310,0.031856,-0.061122,0.047916,-0.049165,0.096755,0.004146,0.079883,-0.063211,0.034494,-0.033100,0.070800,0.005290,0.029347,-0.037689,-0.082463,-0.079699,-0.033528,0.028485,0.033337,0.053069,0.002566,-0.012409,-0.007786,-0.002550,-0.001552,-0.054264,-0.082236,0.000000,0.074204,-0.009847,-0.023363,0.147889,0.101315,0.014802,0.015671,0.091085,0.019338,0.028337,0.054929,0.049356,-0.169663,-0.002762,-0.026499,-0.006397,0.012673,0.008173,-0.007362,-0.078662,-0.057809,0.123820,0.005440,-0.064110,0.004831,0.069609,0.026511,-0.016252,-0.057125,0.014590,-0.011260,-0.049575,-0.030912,0.045349,0.012107,-0.017463,-0.024420,-0.094396,-0.053956,0.057615,0.026356,-0.021681,-0.003713,-0.030678,-0.052776,-0.027675,0.003323,0.008939,-0.036863,0.066942,0.137661,-0.007559,-0.054860,0.012885,-0.027929,-0.069977,0.048938,-0.017583,0.035756,0.094685,-0.077797,0.020476,-0.023837,-0.002202,0.065030,-0.031515,-0.017691,-0.023347,0.045603,0.008742,0.071948,-0.041429,-0.086775,0.008480,0.043921,-0.105392,0.081946,0.078664,-0.023640,-0.016460,-0.034895,0.023015,0.086201,0.054067,-0.044136,0.083065,-0.048092,0.046041,0.038224,-0.033704,-0.003959,0.079631,0.014575,0.048545,-0.011810,-0.000000,0.116791,0.035932,0.032509,0.015253,-0.033750,-0.085784,-0.014608,-0.000822,0.011178,0.007437,0.158738,-0.049248,0.000192,-0.006613,-0.034664,0.040835,-0.063878,-0.084022,-0.007353,0.021517,-0.032585,0.074477,0.049306,-0.002444,-0.060491,0.002114,-0.022857,-0.015124,-0.029544,0.039471,0.034126,0.001363,0.047232,-0.030795,0.047736,-0.057091,-0.074880,0.014529,-0.057685,0.015067,-0.098705,-0.110904,-0.076283,0.076497,0.013432,-0.134388,0.001614,0.003967,-0.089659,-0.046112,0.023424,0.025863,-0.054533,0.046328,-0.030551,-0.048263,0.013863,0.096224,0.001012,0.019113,-0.030635,-0.087400,-0.036552,0.030437
-0.070711,0.128776,-0.046143,0.023526,-0.021199,-0.027963,0.018049,-0.057594,0.014570,-0.006939,0.028091,-0.050168,0.037535,-0.078356,-0.043589,0.047874,-0.037447,0.018805,-0.065263,-0.011134,0.011109,0.037841,-0.054665,0.007272,0.031128,0.029830,0.035082,0.055803,0.048408,-0.070824,-0.000956,0.018611,0.023137,0.035287,0.048876,0.118322,-0.002075,-0.032049,-0.087233,-0.019446,-0.005985,-0.072219,-0.017971,0.035875,-0.009751,0.048064,-0.105914,-0.012200,0.026086,-0.090667,-0.039309,0.038763,-0.065776,0.059894,0.054865,0.019528,-0.080677,-0.085436,0.031693,-0.005904,0.012728,0.042991,-0.037149,0.042959,0.006492,0.056105,-0.032058,0.020339,-0.006175,0.058230,-0.045585,-0.027181,0.024862,0.062497,-0.030281,-0.012237,-0.026624,0.060845,0.025865,-0.011813,0.025172,-0.010111,-0.057795,0.028354,0.008380,0.079872,-0.106783,-0.040568,0.050007,0.028007,-0.057224,-0.004951,0.105574,0.037587,-0.053654,-0.001074,-0.009427,0.004392,-0.106440,0.130589,0.026869,0.061714,-0.008207,0.021214,-0.080685,-0.055825,0.030503,-0.002044,0.018821,-0.043343,-0.049384,-0.042743,-0.039865,-0.031052,-0.028560,-0.051691,-0.026565,-0.064862,0.059679,0.096409,-0.000949,-0.054660,-0.145274,0.063960,-0.017807,-0.028232,0.011873,-0.000000,-0.014866,-0.019200,0.056342,-0.071838,-0.000890,0.026581,-0.096416,-0.070258,-0.075416,-0.011775,0.099312,-0.021573,-0.039559,0.024836,0.009380,-0.067800,0.062155,0.070926,-0.008985,0.000417,0.006322,0.036615,-0.056462,-0.020589,-0.048464,0.008063,-0.047651,-0.048222,-0.003533,0.032865,0.004579,-0.007049,0.015988,0.001571,0.013640,-0.001470,-0.045235,0.020798,-0.005550,-0.022374,-0.045765,-0.066781,-0.064014,-0.031102,0.046553,0.040254,-0.012513,0.012571,0.004460,-0.065143,0.025903,0.088585,0.026316,0.035523,0.046513,-0.050452,0.053270,0.029353,-0.033861,-0.026506,-0.069864,0.043703,0.025507,0.009131,-0.001426,0.002635,-0.045327,0.032578,0.034867,0.028852,-0.082206,0.084361,0.006645,0.113118,-0.138059,0.008465,-0.092117,0.024603,0.046577,0.117915,0.013791,0.036695,-0.060503,-0.061664,0.033410,-0.038466,-0.030686,-0.093441,-0.017129,0.012018,-0.059988,0.050176,0.000162,-0.049122,0.047662,-0.000000,0.065026,0.018658,-0.059761,0.034917,-0.002747,0.073788,0.068159,0.045631,0.030184,0.127084,0.017240,0.020230,0.040810,-0.072025,0.163952,0.121121,0.013480,0.099389,-0.021214,-0.026842,0.009045,-0.006411,-0.003401,0.090264,-0.020996,-0.018495,0.040100,0.138130,-0.032727,-0.007523,0.082818,-0.014235,-0.056900,0.025915,0.010023,-0.058990,-0.034737,0.006526,0.006498,-0.024727,0.074547,0.055901,-0.016410,0.017122,-0.048125,-0.003193,-0.069248,0.011857,0.044160,-0.106240,0.036349,-0.060910,-0.000879,0.007245,-0.018047,0.088691,-0.015263,0.048757,0.060594,0.019545,-0.022331,-0.025245,-0.036006,0.049134,0.033329,-0.106827,-0.014024,0.048241,-0.072866,-0.028290,0.063549,0.034969,-0.128729,-0.091490,-0.049190,0.032921,0.028891,0.023953,-0.054924,-0.034092,-0.015843,0.020991,-0.013151,0.037744,-0.040593,0.020891,-0.031479,0.015587,-0.060694,0.004928,-0.008904,0.013528,-0.076530,0.081972,0.021521,-0.000000,-0.042057,-0.096086,-0.054978,-0.063071,0.081055,-0.028411,-0.066266,-0.036497,-0.066674,0.008660,0.074769,-0.016353,-0.048167,0.009142,-0.002393,0.006083,0.073432,0.035231,0.019919,-0.012059,0.053237,-0.028065,0.087609,-0.002119,-0.061949,0.030780,-0.051466,0.061239,0.024372,-0.033826,0.050891,0.037086,-0.017968,-0.031057,0.006910,0.080241,0.026459,-0.013337,0.000810,-0.018369,0.011180,0.024627,0.034784,0.025784,-0.070075,-0.038274,0.061797,-0.085677,-0.059253,-0.096414,-0.031668,-0.019494,0.009105,-0.050312,0.038556,-0.006547,-0.016972,0.023033,-0.049162,0.058378,0.121016,0.047063,-0.048720,0.043430
0.014307,-0.007006,0.058361,-0.050198,0.062387,0.001545,-0.107592,0.023565,-0.013810,-0.016770,-0.039861,0.011487,-0.001800,0.084861,0.037329,0.001532,-0.053170,-0.098861,0.099858,0.004966,0.029088,0.040625,-0.044448,-0.015731,-0.068879,0.021453,-0.031569,0.026811,0.021117,-0.072645,-0.002091,0.037937,-0.052623,-0.051314,0.050156,0.010672,-0.059502,-0.007577,0.005166,0.040707,0.038156,-0.088680,0.043067,-0.000407,0.034981,0.000413,-0.002750,0.051316,-0.025138,-0.047324,0.022794,-0.120688,0.012537,0.099295,0.006244,-0.038426,-0.092865,-0.026625,0.087184,0.000358,-0.029878,-0.023092,-0.119793,0.014264,0.059398,-0.043023,-0.044109,-0.012656,0.020689,0.032038,-0.004230,0.016969,-0.030764,-0.067523,0.046559,0.066215,0.011742,0.100508,0.011332,-0.111187,0.041446,-0.002156,-0.009301,-0.062552,-0.037855,0.026906,-0.048192,-0.013596,0.025358,-0.001248,-0.027298,0.023979,0.022938,0.087601,-0.033237,0.009827,-0.001037,0.011507,0.107572,0.038236,-0.021059,-0.011221,-0.022797,-0.050800,0.016708,-0.027967,-0.027873,0.019385,-0.001078,-0.043039,-0.035113,-0.016760,0.068360,-0.013332,-0.008042,-0.024282,-0.022540,-0.042416,0.008946,-0.022310,-0.060085,-0.021290,-0.023433,0.071857,-0.014457,0.035776,-0.070333,-0.000000,0.093971,-0.098538,-0.054138,0.001325,-0.059411,-0.044900,-0.000839,-0.019600,-0.068989,-0.006194,-0.001625,-0.060065,-0.048965,0.018714,0.055763,-0.165110,-0.050974,0.040630,-0.080068,0.010330,0.014602,-0.006541,-0.087684,-0.059192,0.024514,0.088069,-0.038425,0.035336,-0.059805,0.059399,0.001997,0.015416,-0.099646,0.031107,0.012221,-0.015883,0.042715,-0.071837,-0.030986,-0.005821,0.066069,0.050003,-0.004550,-0.008392,0.026087,-0.007155,0.051904,0.021397,0.031375,-0.012013,0.032501,0.033970,-0.024832,0.005648,-0.016013,0.032878,-0.085346,-0.057285,0.026973,0.071474,0.027433,0.023227,-0.088073,0.013531,-0.025616,0.110288,0.054401,-0.033447,-0.012526,0.030287,-0.038725,-0.016176,0.036393,0.020187,0.078651,-0.037098,0.020454,0.071367,0.059935,0.069831,-0.067107,0.041620,-0.000654,-0.019077,-0.070002,-0.040199,0.083813,-0.022461,-0.046755,-0.022171,-0.091452,0.045951,0.017528,0.081075,0.039060,0.000000,-0.007499,0.016300,0.020464,0.014735,-0.022858,0.010228,0.059486,0.053355,0.027685,0.014490,-0.005027,0.062647,0.027778,0.029621,-0.039265,-0.028452,-0.001197,-0.046312,-0.020957,-0.042586,0.012943,0.004781,-0.087128,-0.055233,0.000719,0.024050,0.036552,0.023361,-0.063173,-0.013844,-0.057245,0.018242,-0.025347,-0.069084,-0.105019,0.067152,0.046547,-0.066356,-0.011763,-0.036043,0.044935,-0.014004,-0.043179,0.040203,-0.035166,0.073468,0.152498,0.138831,0.004123,-0.013068,-0.040596,0.057376,-0.041651,-0.037035,-0.019946,-0.019080,0.048467,-0.034901,0.002247,-0.033000,0.024924,0.024076,0.021883,-0.068744,0.030505,0.017675,-0.047767,-0.007024,0.035361,0.031944,-0.040101,-0.043282,-0.046392,-0.003655,0.007707,-0.034039,-0.005975,-0.086918,-0.043715,-0.034986,-0.008940,-0.007411,-0.059234,0.020170,0.144324,0.110012,-0.056630,-0.103480,-0.004266,0.054845,-0.073304,-0.047762,-0.045870,0.083729,-0.043616,-0.000000,0.066640,0.103645,0.007735,0.053888,0.050868,0.053547,-0.014259,0.085382,0.022142,-0.005095,0.057181,0.051561,0.060742,-0.020655,-0.007804,0.058845,0.024678,0.003786,-0.075576,-0.057492,-0.018170,0.087892,0.010460,-0.051077,0.036049,0.001674,-0.037973,0.093129,-0.041879,-0.057796,0.047941,0.064918,-0.026846,0.005051,0.028385,0.098860,-0.088885,0.094199,0.010777,-0.062393,0.007409,0.076422,0.043356,0.093695,-0.035583,0.077191,-0.097028,0.015328,0.058092,-0.092623,-0.003644,-0.007575,0.004241,0.050764,0.156813,0.001158,-0.048286,-0.118633,-0.020396,-0.006900,0.077721,-0.022625,-0.020484,0.081692
0.091428,-0.003691,-0.032747,0.059554,0.060748,-0.080795,-0.020461,-0.060793,-0.034454,0.013626,0.032430,0.059618,0.015578,0.034083,0.036469,0.043479,0.055344,-0.102477,0.067784,-0.077301,-0.071342,0.031301,0.070124,0.069479,-0.106969,0.036122,-0.087959,0.079010,-0.033424,0.030533,0.007151,0.104766,0.027131,-0.045788,-0.061865,-0.023258,0.035673,0.042444,0.048978,-0.055765,0.007993,-0.044904,-0.000510,-0.048629,-0.059827,-0.019971,-0.038204,-0.032184,0.082362,-0.047301,0.040719,-0.092340,-0.074055,-0.075908,-0.009660,0.054236,-0.144096,-0.029266,-0.008141,-0.014898,-0.023197,0.039342,-0.025728,0.019518,-0.032199,-0.024535,0.025676,-0.033387,0.027061,-0.090891,0.021514,0.024672,-0.066424,-0.000170,-0.016044,-0.018839,0.097283,0.030492,0.076810,-0.043693,-0.029967,-0.028354,-0.000197,-0.000589,-0.011659,-0.068830,0.031796,-0.109697,-0.044401,0.078244,-0.022198,0.035311,-0.092422,-0.003957,0.054746,-0.037517,-0.013574,-0.009332,-0.061111,0.041157,-0.022049,0.061930,0.027513,0.020057,-0.002042,0.061980,-0.038415,0.063419,-0.016226,0.042775,0.045425,0.011744,0.055103,-0.000354,-0.027142,-0.036677,-0.086953,0.007294,0.035434,0.070513,0.002817,0.074405,0.031292,0.026151,0.003117,-0.077400,-0.024082,-0.000000,-0.080823,0.007816,-0.012994,0.031117,0.037199,0.054884,0.013851,0.020186,-0.015520,0.034141,0.024463,-0.015695,-0.009998,-0.107872,0.158525,0.062846,-0.040138,0.042244,-0.135176,0.001032,-0.042360,0.067841,0.002118,-0.042787,0.070448,-0.016865,0.008697,0.056903,-0.057884,-0.000060,-0.020834,-0.010271,-0.009921,0.075038,0.007617,-0.025000,-0.005076,-0.061438,-0.130505,0.038052,0.023419,0.011515,-0.050421,0.081783,-0.073770,0.016949,0.045160,-0.011762,-0.058081,0.084041,-0.014975,0.020571,-0.004237,-0.099488,-0.029057,0.067250,0.085664,0.038158,-0.040774,-0.122020,-0.036513,0.033230,-0.018198,-0.076308,0.058637,0.061504,0.003086,0.031757,-0.016098,0.077812,0.100102,0.024187,-0.025272,-0.018329,-0.016009,-0.024342,-0.017110,-0.023534,0.085363,-0.076334,0.004342,0.046113,-0.030264,0.022824,0.103235,-0.034730,0.015439,-0.005767,0.105708,0.021381,-0.025754,-0.010366,0.027381,-0.004837,0.021228,0.000000,0.066475,-0.065826,-0.010769,0.044733,0.046257,-0.037909,0.000660,-0.011166,0.010029,0.002472,-0.014072,0.029933,-0.029051,-0.012230,0.160371,-0.010669,0.056005,0.075522,-0.037272,0.016412,0.045603,0.018126,-0.079046,0.043276,-0.037935,-0.039512,-0.074999,0.007848,-0.033372,0.003128,-0.007004,-0.036955,0.075672,0.027066,0.020153,-0.001226,-0.058762,-0.049611,-0.028559,-0.019054,0.000366,-0.036162,0.021447,0.087820,0.018061,-0.048679,0.038249,-0.045976,-0.043095,0.073785,-0.018820,-0.098550,0.005078,0.007155,-0.064146,-0.003501,0.087061,0.002394,-0.013304,0.034775,0.077244,-0.075727,-0.013570,-0.011714,-0.042983,-0.039106,-0.102782,0.019115,-0.061082,0.025234,0.031908,-0.056156,-0.063104,-0.015132,-0.025639,-0.042170,0.183306,0.005916,0.014220,-0.020062,-0.025091,-0.017834,-0.013224,0.078535,-0.017626,0.037784,-0.023836,-0.061907,-0.050763,0.035750,0.048652,0.000677,-0.045113,-0.049350,-0.108055,-0.000000,-0.036849,0.081189,-0.085994,0.016620,0.042741,0.054113,0.032188,-0.008873,-0.027076,0.036727,-0.001388,-0.058602,0.059955,-0.018197,0.009653,0.055628,-0.045794,-0.050276,-0.042914,0.019235,0.014650,0.055826,0.004302,0.013915,-0.068048,-0.076125,0.037819,0.027842,-0.036210,-0.005316,-0.072643,0.031296,0.031823,0.015796,0.077580,-0.072094,0.084898,0.074362,-0.024208,0.012902,-0.012472,-0.059536,-0.024357,-0.030737,0.075191,0.048237,0.017327,0.031747,-0.071894,0.014943,0.063773,0.032705,0.003014,0.029712,0.102588,0.033464,-0.006394,-0.031727,0.002714,0.000487,0.039699,-0.003406,0.086578,0.008707
0.023299,-0.060143,-0.000508,0.007103,0.033350,-0.006550,-0.131697,-0.021096,0.078899,0.012110,-0.072368,0.040684,-0.063168,-0.073335,-0.000097,0.022871,-0.026197,-0.048616,-0.078179,0.094961,-0.035221,0.137089,-0.035827,-0.023190,0.155136,-0.038541,-0.004945,0.065700,-0.050154,0.022509,-0.054930,0.040679,0.039406,-0.013088,0.019602,-0.014129,0.018142,-0.071679,0.149020,0.019348,0.027743,0.005513,-0.016856,0.011959,-0.101702,0.062049,-0.079257,0.027456,0.042171,-0.038189,0.084328,0.013725,0.044478,0.044778,0.065770,0.031429,0.028583,-0.051895,0.026620,0.035065,0.038053,-0.029101,-0.018374,0.092924,-0.120120,-0.047383,-0.059615,0.070592,0.019688,-0.003668,-0.003164,-0.065600,0.099129,0.009486,0.028464,0.060595,-0.036457,-0.075580,-0.016645,-0.020674,-0.008119,-0.107706,0.002663,0.060772,-0.067318,0.033336,0.055420,0.057743,-0.034759,-0.068335,-0.002226,-0.005547,-0.077763,-0.057823,-0.056873,0.007975,-0.053092,0.044026,-0.030165,0.094090,0.010999,0.027889,-0.003270,-0.032578,0.084824,0.010564,-0.000487,0.042635,-0.048950,-0.040130,-0.001496,0.014287,0.033296,0.086765,0.006056,-0.030972,0.028276,0.043903,0.031382,-0.062844,0.013706,0.069369,0.032605,0.073704,-0.002141,-0.013565,0.063322,-0.000000,-0.027448,-0.033630,0.008334,0.059910,0.014536,-0.010494,0.026854,-0.013523,-0.007021,-0.035759,0.053458,-0.019662,-0.009490,-0.125432,0.036961,-0.008840,-0.024500,0.041151,0.026688,-0.005673,-0.019963,-0.107303,-0.047510,0.025038,-0.061983,0.139937,0.032575,-0.061534,-0.062539,-0.032033,-0.030935,0.163503,-0.015768,0.047801,-0.063471,-0.016017,0.026235,0.060783,-0.006156,-0.050026,0.026328,-0.003818,-0.103812,0.060462,-0.038050,-0.035645,0.050566,0.106807,-0.048336,-0.014398,-0.005733,0.023709,0.067980,-0.014398,-0.019622,-0.027809,0.020751,0.044625,-0.003351,0.011624,-0.041592,0.022409,-0.021196,0.006586,-0.055044,-0.013335,-0.025371,-0.055136,-0.062958,0.052802,-0.054418,-0.020622,-0.064884,0.045651,-0.002280,0.038545,0.034614,0.046662,-0.003377,-0.043622,-0.004346,-0.107731,0.017745,-0.044999,0.008984,-0.010557,0.000703,0.008603,-0.111182,0.039477,-0.013373,0.048991,-0.033261,0.069449,-0.029692,0.000000,0.017815,0.019635,-0.023187,-0.021467,0.026518,-0.031453,0.047757,0.062328,-0.093334,-0.051157,0.000191,0.040908,0.005498,0.044124,0.021406,0.008120,0.044160,-0.009396,0.039441,0.025476,0.032546,-0.020062,-0.113152,0.041337,0.024970,0.053278,0.019749,-0.032919,-0.135189,-0.060419,0.045391,-0.065476,-0.005601,-0.035849,-0.032850,0.016439,-0.036048,0.046048,-0.010453,0.027008,-0.002217,0.057666,-0.047504,0.038724,-0.007888,-0.028092,0.124896,0.095943,-0.054661,0.068065,-0.019977,-0.019049,-0.100291,0.037679,0.013303,0.013003,-0.015710,-0.080556,-0.004635,-0.022039,-0.053430,-0.005493,-0.013625,0.000397,0.005644,0.056749,-0.035821,0.036782,-0.024337,0.038038,-0.012025,0.080190,-0.054544,-0.008002,0.009085,0.041664,0.006691,-0.001261,-0.047881,0.077503,-0.092240,0.067819,-0.066311,0.086548,0.023944,0.073377,0.028124,0.045451,0.014920,0.056194,-0.073498,0.033468,0.046195,-0.024859,-0.011982,-0.000000,0.042241,0.022321,0.000006,-0.045974,0.101345,0.051235,0.011670,0.068581,-0.016135,-0.022894,0.070894,-0.005032,0.040366,-0.038270,0.033683,0.014033,0.020551,-0.032776,-0.035166,0.036399,-0.069269,0.010395,-0.046633,0.061912,0.111935,0.067223,-0.064653,0.048120,-0.054669,0.010728,0.012126,0.012367,-0.060943,-0.030501,-0.056708,0.021698,0.010172,-0.065518,0.001504,-0.086385,-0.104706,-0.023928,-0.101370,0.046932,0.018481,-0.045465,0.027475,0.044448,-0.006996,0.000275,-0.072916,-0.010569,-0.011593,0.024408,0.075531,-0.011456,-0.029492,-0.038493,-0.107913,0.024182,0.074300,-0.005095,0.108511,-0.015401
0.048344,-0.015070,-0.060907,-0.045858,0.015710,0.049395,-0.073200,0.032910,0.091756,-0.013108,-0.123197,0.036211,-0.066813,0.026165,0.093909,0.031238,-0.004081,0.028581,-0.010241,0.013631,0.037242,0.044808,0.025029,-0.059935,0.048826,0.004245,-0.057945,0.013029,0.007293,-0.063175,-0.018727,0.002066,0.111010,0.015225,-0.062799,-0.021836,-0.035957,0.003999,0.132297,0.047556,-0.034186,0.048478,0.029045,0.043663,-0.093403,0.043871,0.002946,0.064643,0.005989,0.000189,-0.054767,-0.054834,0.013518,0.049368,0.079203,0.105469,-0.007907,0.079221,0.039648,-0.028635,-0.000481,-0.036762,-0.045144,0.043166,-0.036223,-0.073684,-0.071767,0.107620,-0.012061,0.017673,0.001394,0.001636,0.024060,0.062568,0.083790,0.118996,-0.051937,-0.035120,0.004897,-0.020518,0.013796,-0.019038,-0.042360,0.026971,0.054129,0.021368,-0.024684,0.034825,0.005645,-0.045068,0.001037,-0.083327,-0.053872,-0.023292,0.009165,0.046686,-0.000564,-0.062013,-0.054313,0.056776,0.045090,0.011404,-0.001421,-0.055711,0.023979,-0.083221,0.011766,0.056672,-0.032235,-0.086945,0.029132,0.030679,-0.043613,0.095750,0.003501,-0.100818,0.015896,0.073873,0.064099,-0.015204,-0.015210,0.050071,-0.057695,0.036420,-0.026036,0.042263,0.005435,-0.000000,0.011904,0.041118,-0.023952,0.024250,0.018639,-0.069792,-0.016723,-0.025738,0.071775,0.025363,-0.003661,0.010465,0.014841,-0.006182,0.113023,-0.049181,-0.102969,0.079745,-0.103410,0.030429,-0.019673,-0.052170,-0.041182,-0.075444,-0.011683,0.041269,0.036111,-0.113015,-0.102661,-0.017529,0.002848,0.100361,-0.056446,0.033685,-0.018584,-0.031269,0.008732,0.029167,0.025966,-0.110641,-0.030242,0.038351,-0.038263,0.019674,0.057315,0.034808,0.050349,0.013494,-0.119046,0.008033,0.021234,-0.046470,0.068934,-0.049802,0.001572,-0.046211,0.034240,0.005706,0.004475,0.033780,-0.002870,-0.017022,0.006283,0.039659,-0.034155,0.003961,-0.053356,-0.038307,-0.009318,0.053417,-0.014926,-0.024710,-0.011004,0.059002,0.013073,-0.037076,0.087612,0.067196,0.000065,-0.071805,-0.017069,-0.019905,-0.017084,-0.092494,-0.080860,0.008022,0.033145,-0.006116,-0.098894,0.047467,0.038510,0.035609,-0.039598,0.055135,-0.041857,0.000000,-0.030393,0.007641,0.028336,0.028584,0.032636,0.016005,0.000934,-0.017084,0.039814,0.032415,-0.000457,0.011809,-0.049821,0.048061,-0.060317,-0.072106,0.038131,-0.058586,0.062945,-0.008309,0.087604,-0.022116,-0.148787,-0.018363,0.036148,0.009480,0.009266,-0.074100,-0.092066,0.001187,-0.016079,-0.035335,0.021396,-0.033567,-0.019178,0.031447,-0.031823,0.072809,-0.030616,0.057634,0.009514,0.017394,-0.087512,0.030396,0.000518,0.003524,0.030725,0.063831,-0.082144,0.104431,-0.027114,0.034414,-0.112178,-0.075447,-0.010340,0.052307,-0.014414,-0.073854,-0.078859,-0.000174,-0.058275,0.050691,-0.021785,0.004040,0.002010,0.086735,-0.039704,-0.007028,-0.049192,0.020695,-0.061891,0.072420,-0.023975,0.039086,-0.070858,-0.006617,0.043224,-0.091712,-0.115725,0.097314,-0.043116,0.013664,-0.099341,0.096486,0.046837,0.134503,-0.013591,0.044079,-0.002561,-0.015994,-0.026234,0.011944,0.023687,-0.035867,-0.045300,-0.000000,-0.098356,0.012907,0.063398,-0.017480,0.022210,0.044082,0.021166,0.031425,-0.009396,-0.060015,0.074374,0.011973,-0.056554,0.056068,0.107458,0.022273,-0.023907,0.008745,-0.076148,0.059218,-0.023308,0.041329,-0.005754,0.037019,0.092934,0.025827,-0.044565,0.073774,-0.027008,-0.003634,0.062565,0.097438,-0.005957,-0.031533,-0.009090,0.074917,-0.024204,-0.025127,0.019837,0.007816,-0.091908,0.024201,-0.035805,0.059722,-0.017714,-0.033160,-0.005594,0.041859,-0.043909,-0.059855,-0.007083,-0.036330,-0.001176,-0.017114,0.084890,0.050286,-0.085865,-0.078852,-0.044562,-0.013545,0.077052,0.017505,-0.009331,0.054804
0.065018,-0.011375,0.100261,0.042853,0.102054,-0.059643,-0.058038,-0.060410,0.005857,0.013483,-0.070378,0.052225,0.008374,0.050506,0.036404,0.051095,0.079085,-0.022787,-0.023015,-0.083033,-0.071459,0.041483,0.071075,0.040010,-0.076212,0.028306,-0.062088,0.046279,0.010853,-0.085115,0.038988,0.127878,0.042859,-0.045370,-0.073723,-0.025917,-0.108318,0.066001,0.031371,-0.004251,-0.048490,-0.030875,0.037239,0.031109,-0.082996,0.028279,-0.030061,-0.043885,0.051718,0.021912,0.011569,-0.065520,-0.027977,-0.078977,-0.007535,0.058290,-0.123496,-0.042567,0.010316,0.025394,0.028499,0.006306,-0.024662,0.001946,0.041724,0.002954,0.028017,-0.037286,0.017237,-0.071803,0.109423,0.105079,-0.024609,0.012547,0.045605,0.041405,0.055447,0.025539,0.047758,-0.101526,-0.036865,-0.012104,0.040632,-0.064767,0.035631,-0.059310,-0.017983,-0.025459,-0.095188,-0.002241,0.036403,-0.019363,-0.075012,0.016072,0.002213,0.038064,-0.019679,-0.045079,0.035271,0.028986,-0.002913,0.023349,-0.000921,-0.014733,-0.037613,-0.031885,-0.042681,0.083819,0.008850,0.061694,0.059595,0.042764,-0.003147,0.048572,-0.022215,-0.056002,-0.031105,0.011541,-0.007611,0.042270,-0.028976,-0.007298,0.032346,0.033566,0.065480,-0.021318,-0.070052,-0.000000,-0.028995,0.006495,0.005657,0.014682,-0.019517,0.015983,-0.078993,0.005178,0.013223,0.070571,-0.086579,0.071330,0.003538,-0.006986,0.104113,-0.032057,-0.045390,0.068256,-0.127301,-0.057677,-0.008411,-0.035192,0.032455,-0.007623,0.079837,0.030965,-0.030858,0.040925,-0.019122,-0.006727,0.030728,-0.007754,-0.007490,0.101882,0.089143,0.008494,0.056935,-0.023153,-0.052090,-0.024023,0.068721,-0.043828,-0.030723,-0.016456,-0.024802,0.017728,0.066539,-0.048950,-0.097781,0.048202,0.042831,0.035722,-0.020519,-0.002983,0.004194,0.066613,0.021078,-0.097863,0.023377,-0.035821,-0.036278,0.014494,0.021024,-0.035542,0.009892,0.092440,0.054493,0.067627,-0.010901,0.064398,0.098137,0.017632,-0.011459,-0.020540,-0.010172,-0.017247,-0.047488,-0.006434,0.062978,-0.001820,-0.079826,0.003880,-0.000298,-0.062231,0.030787,0.025664,0.098059,-0.080265,0.102607,0.000769,-0.076768,0.007426,-0.079933,-0.012685,0.006199,0.000000,-0.106261,-0.044817,0.070030,0.045094,-0.041118,-0.048946,0.046446,-0.043794,0.006455,0.010424,-0.055089,0.042347,0.023340,-0.087751,0.034197,0.014340,0.006276,-0.012799,-0.015433,0.018774,-0.080003,-0.016101,-0.145641,-0.001471,-0.016580,0.014532,-0.089339,-0.027387,0.057975,-0.044882,-0.086401,-0.030838,0.008166,-0.087567,-0.067704,-0.006523,0.087408,-0.009734,-0.052016,0.046795,-0.041002,0.018140,-0.044543,0.000589,-0.044015,-0.062381,0.035179,0.072417,-0.054311,0.040185,0.110071,-0.030253,0.040089,-0.046259,-0.020079,0.056053,0.037250,0.033879,-0.010581,0.079296,0.027027,0.003885,-0.105614,0.093014,0.024063,-0.032463,-0.039167,-0.042985,-0.052898,0.050509,-0.030251,-0.061115,-0.048617,-0.049155,0.019235,-0.040473,0.062297,0.010644,0.027095,0.005656,0.012533,-0.047288,0.056444,0.080441,0.061861,0.086583,-0.056993,-0.053095,-0.004055,-0.011790,-0.046823,-0.048388,-0.114492,-0.026004,-0.087274,-0.000000,-0.048900,0.071141,-0.018559,0.028300,0.111398,0.004284,0.027577,0.133864,-0.024208,-0.016625,-0.028242,-0.043132,-0.029630,0.007179,0.079224,0.020858,-0.013886,-0.024697,-0.007381,0.012703,0.070614,0.067651,0.044939,0.000787,0.094140,-0.015466,-0.029833,0.020295,-0.042797,0.021773,-0.057769,-0.026475,0.019337,0.006061,0.150216,-0.007528,0.035372,0.058392,-0.051724,-0.008036,-0.028502,0.056411,0.001530,0.045113,0.008393,0.040226,-0.040988,0.013799,0.005623,-0.042352,-0.003052,-0.030847,-0.007044,-0.004675,0.112740,0.038109,0.040336,-0.053373,-0.026979,-0.009506,0.029576,-0.071837,-0.038014,-0.072864
-0.004234,-0.022970,0.012307,-0.061611,0.057459,-0.014095,-0.111915,-0.066571,0.006604,0.003626,0.021588,0.125560,-0.035350,-0.032243,-0.001877,-0.004402,-0.074945,-0.150252,0.014866,-0.004776,0.033901,0.059799,0.008199,-0.027389,0.038487,0.039992,-0.030699,-0.064131,0.029559,0.003825,0.060964,0.079474,0.005742,0.037386,0.065568,0.096130,-0.008122,0.069802,0.005367,-0.025242,0.081567,-0.101423,-0.049466,0.069383,-0.006150,0.010998,-0.081305,-0.061002,-0.071038,-0.027616,-0.017276,-0.054923,0.050766,0.021580,0.050285,0.047498,0.037043,-0.051112,0.027701,0.006643,-0.003523,0.090087,-0.106547,0.081514,0.025060,0.038557,0.044779,-0.034929,0.127179,-0.030862,0.067993,0.021771,-0.048712,0.074030,0.016608,-0.013208,-0.023545,0.049412,0.089379,-0.024268,-0.010089,-0.033623,0.053972,-0.024197,0.067669,-0.022934,-0.033855,-0.037862,0.030726,0.077250,-0.049566,-0.009494,0.052989,-0.040239,-0.023494,0.011216,0.017681,0.040989,0.022189,-0.000448,-0.061543,-0.011125,-0.032916,-0.068351,-0.017609,-0.034812,-0.063960,0.029235,-0.013839,-0.064119,-0.096935,-0.079637,0.032728,0.007758,0.029510,0.124950,0.039099,0.044549,0.020829,0.091351,0.047062,0.048925,0.035010,0.009303,-0.026444,-0.071446,-0.022076,-0.000000,-0.006013,-0.042037,-0.017139,0.074490,-0.083737,0.030256,-0.073694,0.029439,0.046725,-0.006506,0.001761,0.014264,-0.062522,-0.016485,-0.024598,-0.095053,0.042431,0.076601,0.032865,-0.018630,0.066657,-0.038755,-0.013076,0.025105,0.034903,0.015353,0.008919,0.021192,0.022010,0.004966,-0.023790,0.055373,-0.010621,0.017891,0.000487,-0.016658,0.082534,0.045084,0.031920,-0.094909,-0.002614,-0.024871,-0.036850,0.039677,0.003133,0.015971,0.016681,-0.056667,0.003660,0.095157,-0.002954,0.001774,0.065057,-0.020979,-0.077431,0.033064,-0.071133,-0.021143,-0.003604,-0.011011,0.102031,0.070341,-0.161982,0.086995,-0.008455,-0.012247,-0.001166,-0.028172,0.010233,0.022717,0.021133,-0.003794,0.023570,-0.086993,-0.078943,-0.074680,-0.017281,0.016194,0.010578,0.018666,0.031532,0.002928,-0.011192,-0.004066,0.085109,-0.023910,-0.002730,-0.049446,-0.029012,0.002276,-0.075401,-0.017976,-0.039547,0.024896,0.078592,0.000000,-0.003621,-0.143907,-0.065655,0.025821,0.052609,-0.017551,-0.033390,-0.018905,-0.007016,0.063859,-0.055103,0.017926,0.026491,0.084608,-0.049248,0.028016,0.084200,0.104192,-0.019286,0.018563,-0.015651,0.019698,0.046601,0.015854,-0.034218,0.031030,0.029011,-0.023398,-0.047529,0.014700,-0.005161,-0.096407,-0.168235,-0.024919,0.016876,-0.010939,0.022356,0.008634,0.043794,0.017655,0.026453,-0.095947,-0.064034,0.014938,0.013040,0.029480,0.028065,-0.002152,-0.080623,-0.001533,-0.023182,0.045413,0.008377,-0.062018,-0.027272,0.050717,0.034643,-0.002653,-0.044298,-0.024041,0.008452,0.038379,0.014193,-0.077199,0.098979,0.012818,-0.013502,-0.041419,0.062733,0.043581,0.055925,-0.051291,-0.151993,0.066056,0.023713,-0.023032,0.036446,-0.101114,-0.006205,-0.051630,-0.083966,-0.088155,0.079776,0.005768,-0.013105,0.001202,-0.027599,-0.036922,0.020532,0.037201,-0.036637,-0.097394,0.005390,-0.006548,-0.034505,-0.000000,0.009521,-0.002356,0.027753,-0.038024,0.098582,0.089467,0.090486,0.017731,0.036958,-0.002592,0.042299,0.057275,0.036095,-0.014197,0.020015,-0.027303,0.041689,0.018204,-0.065037,-0.043712,-0.044182,0.051216,-0.014219,-0.027239,-0.023195,0.031310,-0.061329,0.044738,-0.013420,-0.067466,0.022948,-0.033659,0.010571,0.065473,0.001770,-0.042134,0.033498,-0.010905,0.028303,-0.104555,-0.095885,0.048578,0.102949,0.097912,0.083891,0.004364,-0.062469,-0.046606,-0.007316,0.003308,0.017329,-0.064401,-0.002117,0.037399,0.083133,0.006287,0.032507,-0.055019,-0.025427,0.047084,0.042122,-0.042610,0.113546,0.043797
0.079437,-0.040766,0.050202,-0.038799,0.029878,-0.035546,-0.149720,-0.015783,0.082436,-0.006338,-0.058415,-0.010292,-0.030451,0.018673,0.066337,-0.023902,0.018905,-0.069139,0.086068,-0.013120,0.060324,0.090642,-0.013166,-0.026396,0.072171,0.024364,0.051107,0.113047,-0.033231,0.008141,-0.072784,0.001019,0.016113,-0.025646,-0.004124,-0.023802,-0.007286,-0.006170,0.095238,0.028832,0.019365,0.017782,0.067729,0.023777,-0.168502,0.056661,-0.054903,-0.020813,0.045155,-0.028439,0.095245,0.034695,0.061879,0.033747,0.053154,0.075484,-0.010047,0.032363,-0.001088,0.036388,0.044811,-0.019960,-0.043800,-0.012026,-0.011916,-0.056709,-0.097247,0.076430,0.003885,-0.128716,0.012348,0.001478,-0.006523,0.006019,0.073305,0.031595,0.021455,-0.003262,0.006300,-0.078475,-0.008929,-0.042397,0.028152,0.025998,-0.012838,0.002476,-0.017437,0.076383,0.038881,-0.040622,-0.071958,-0.007099,-0.114376,-0.012671,-0.023209,0.067002,-0.040193,0.062220,0.019119,0.050019,0.059603,0.043263,0.022806,-0.027319,0.059744,-0.021906,-0.024904,-0.023531,0.027572,0.009472,0.055025,0.025612,0.040638,0.023352,-0.039178,0.008778,0.065516,0.017883,0.001193,-0.098887,-0.108375,0.075476,-0.045208,0.045495,0.003905,0.030770,-0.022151,-0.000000,-0.049152,-0.055849,-0.002239,0.037130,0.006298,-0.027266,-0.011243,-0.020021,0.006723,-0.067820,-0.024342,-0.067738,0.003447,-0.073312,0.040696,-0.113339,-0.024925,-0.034270,-0.061967,0.003249,-0.048608,-0.090712,-0.064866,0.012593,-0.094981,0.003859,-0.025269,-0.044538,0.012937,-0.006930,-0.011498,0.031777,-0.022236,0.045603,0.041765,-0.022094,0.087849,0.025364,-0.037703,-0.051075,-0.025335,0.021198,-0.032172,0.020621,-0.034356,-0.021123,0.025518,0.074206,0.040205,-0.032460,0.005177,0.015359,0.050721,-0.065365,-0.011434,0.002905,0.052640,-0.036278,0.007709,0.025633,-0.036453,0.090123,-0.029191,-0.060022,-0.056013,0.059140,-0.016168,-0.024014,0.025558,0.063014,-0.007112,-0.012675,-0.025170,0.022657,0.058257,0.044613,0.104132,0.090199,0.053171,-0.050302,-0.056698,-0.103357,-0.045236,0.036881,0.013382,-0.016585,0.019443,0.007344,-0.033174,0.049910,0.003443,0.000476,-0.004110,0.025586,-0.040864,0.000000,0.006260,0.009956,-0.024938,-0.044628,0.065193,0.012476,0.037872,0.066299,-0.032262,-0.067550,-0.046063,0.042606,0.069626,0.022104,0.040605,0.024468,0.012170,0.002852,0.046537,0.020995,0.039300,-0.007267,-0.044975,0.063757,-0.060983,0.049399,-0.003728,-0.028485,-0.177418,-0.015072,-0.032652,-0.034404,-0.013343,0.004085,-0.088074,0.034168,0.007776,-0.038724,0.003133,0.003542,-0.002361,0.017045,-0.026479,0.140607,-0.052083,0.024369,0.079342,0.051545,-0.146012,0.077359,-0.107980,0.048480,-0.115688,0.053456,0.004014,0.007348,0.029950,0.004301,-0.003631,-0.010347,-0.078087,0.052304,-0.061586,0.057875,0.014387,0.060928,-0.109778,0.050955,-0.047858,0.060266,-0.043174,0.074669,0.005730,0.001578,0.021560,0.012976,0.059057,-0.006295,-0.054787,0.075716,-0.086581,0.053343,-0.060488,0.069993,0.042970,0.029608,-0.012655,-0.036610,0.006217,-0.017376,-0.019324,0.096670,-0.055297,-0.005411,-0.001044,-0.000000,-0.019525,0.076784,0.010795,-0.009117,0.043912,-0.002453,0.059314,0.096478,0.016959,-0.050023,0.018089,-0.001955,0.031545,-0.077169,0.055924,0.025309,0.001559,0.003649,-0.090654,0.004261,-0.111146,0.054045,-0.035085,0.049682,0.032858,0.053726,0.010842,0.017199,-0.054215,-0.020422,-0.000917,0.093476,-0.049777,-0.030298,0.000147,0.000590,-0.061397,-0.010899,-0.022166,-0.060096,-0.103740,-0.027973,-0.090993,0.068843,0.063842,0.003307,-0.017394,0.072323,0.050663,-0.047362,-0.099678,-0.010980,0.015702,0.018034,0.079977,-0.008427,-0.116763,-0.066545,-0.088494,-0.011765,0.028990,0.042875,0.072175,0.022164
0.042999,-0.046613,0.023141,0.060328,0.016500,-0.006562,-0.049717,-0.050028,-0.005983,-0.016923,-0.038947,0.047204,-0.028328,-0.010506,-0.023532,-0.000020,0.010461,-0.144408,0.002487,-0.098977,-0.036294,-0.002379,0.016421,-0.050674,0.091983,0.052482,0.039109,-0.000053,-0.021943,-0.043738,-0.032998,0.027273,-0.020925,0.014987,0.025347,0.009806,0.021471,-0.024516,-0.031954,-0.006594,0.011716,-0.001800,-0.005024,0.042464,-0.103884,0.067620,0.035233,-0.060209,0.066873,0.063712,-0.024703,-0.051550,0.069107,-0.003350,-0.021016,0.048355,0.030856,-0.035475,-0.028269,0.004028,-0.076515,0.006954,-0.058331,0.038789,-0.013708,-0.117170,-0.033138,0.108903,-0.029507,-0.097310,-0.007471,-0.014872,-0.037419,0.001995,0.074571,0.055341,0.027205,-0.029561,0.123478,-0.056544,0.082545,0.003616,-0.023014,0.018090,-0.003996,-0.075930,0.020128,0.042991,0.001617,-0.069905,0.110338,0.012057,0.010052,-0.001232,-0.021333,0.055670,-0.051376,0.049646,-0.035379,0.009815,-0.066320,0.049830,0.012659,0.012094,-0.089153,0.007406,0.022337,0.065183,0.038815,-0.016990,-0.022033,0.046766,-0.045796,0.056543,0.014949,0.075561,-0.078384,-0.039656,-0.025142,0.022854,0.003721,0.061459,-0.129694,0.029617,-0.029720,-0.102325,-0.102879,-0.000000,0.051964,0.108579,0.038511,0.002319,0.021679,0.017192,-0.008579,0.108468,-0.063459,0.025507,-0.022970,0.053474,0.020029,-0.043148,0.015083,0.025166,-0.009723,0.038093,-0.029552,0.017418,0.013751,-0.064031,0.038283,0.059515,0.032247,0.043851,0.037890,0.060329,0.090751,-0.016648,-0.067258,0.069734,-0.011773,-0.018350,-0.032088,-0.013821,0.026685,-0.085476,0.000846,0.041148,0.011358,0.030516,0.007551,-0.003844,-0.002841,-0.005038,0.102065,-0.011278,-0.029451,-0.014630,-0.049745,-0.036397,-0.097812,-0.012001,-0.012791,0.073891,0.025721,-0.003566,0.042834,-0.009788,-0.101143,0.021135,0.038562,-0.020712,-0.011441,0.068461,0.010426,0.029318,0.098674,0.040411,-0.018062,0.026764,-0.010883,-0.012475,-0.031761,0.043667,-0.086210,-0.022203,0.098599,0.017175,0.039175,-0.076810,0.027584,0.004766,0.113956,0.071252,0.037739,-0.112908,-0.001300,0.087010,-0.053167,0.024454,-0.047643,-0.003134,0.069670,0.000000,-0.043737,0.018265,-0.026868,0.063587,0.024640,-0.009940,0.032322,0.067631,-0.015487,0.074135,-0.031229,-0.000435,0.041830,0.009902,-0.053628,0.029196,-0.001991,-0.084014,0.021156,-0.055709,-0.060384,0.084756,-0.014123,0.065780,0.006035,0.054343,-0.122442,-0.033941,-0.056060,0.118199,-0.058161,-0.058142,-0.081559,-0.049706,0.004686,0.044026,0.028787,-0.055899,-0.025449,0.033011,0.074781,-0.080479,-0.079448,-0.062448,0.037360,-0.093717,0.007831,0.012320,0.003132,-0.054716,0.015715,0.017681,-0.078130,-0.096041,-0.057945,-0.023371,0.086347,0.041088,-0.068993,-0.046720,0.010407,0.016991,0.037266,0.075791,0.030560,0.009568,0.090659,-0.013453,-0.050624,0.029745,0.012343,0.032756,0.002304,0.001191,-0.000931,0.067371,0.047330,-0.038449,-0.013384,0.046951,0.004119,-0.061761,0.086107,0.044104,0.081665,0.106282,-0.035839,0.003028,-0.000921,-0.042546,-0.091743,-0.012729,-0.054994,-0.047928,0.001969,-0.000000,-0.036171,-0.010699,0.003417,-0.033672,0.009532,-0.055473,-0.027643,0.122878,0.030736,0.060818,0.025661,0.017468,-0.020478,-0.000994,0.041776,0.088494,0.058919,0.018479,-0.029678,0.028485,-0.016589,0.074148,-0.076415,0.027097,-0.031729,0.006016,0.001360,0.082418,-0.006009,-0.066026,-0.025211,-0.051236,-0.020782,-0.053732,0.109275,-0.127357,-0.002459,-0.020526,0.015103,-0.016688,-0.075822,0.019250,-0.057827,0.042643,0.022545,0.006355,-0.037716,0.030550,0.026450,0.002310,-0.048668,-0.002470,-0.024744,-0.044615,0.063661,-0.095569,-0.049831,-0.030287,-0.108368,0.040340,0.024663,-0.132003,-0.030803,0.047859
0.025445,-0.019807,0.101288,0.030032,-0.014065,-0.088529,-0.091310,-0.068489,-0.022947,0.038400,-0.078086,-0.013475,-0.004588,0.014544,-0.020030,0.060197,-0.070874,-0.009628,0.064792,-0.003455,0.010208,-0.046338,-0.002985,-0.025968,0.011937,0.080280,-0.016607,0.036975,0.009620,-0.018325,-0.030984,0.098473,-0.059753,-0.046462,0.034264,0.089557,0.002199,0.001607,-0.063995,0.038456,-0.038434,0.004450,0.112164,0.064765,-0.069837,0.026758,0.013313,-0.088287,0.006279,0.012704,0.047735,-0.057505,-0.021934,-0.038134,-0.019580,0.027183,-0.001957,-0.022617,0.012635,-0.006126,0.026308,0.001882,-0.048308,-0.033869,0.051199,-0.063796,-0.016591,0.020758,-0.004027,-0.089184,0.029099,0.038119,-0.010592,-0.101136,0.038447,0.017790,-0.000678,0.009952,0.072001,-0.122054,0.072644,0.045479,0.067424,-0.038340,0.005751,0.032942,-0.034354,0.008943,0.030197,0.035233,0.013491,-0.139508,-0.151822,0.010777,0.006899,0.051334,0.019505,0.065654,-0.038640,-0.028279,0.071211,-0.001904,-0.000549,-0.074499,-0.014001,-0.073120,0.007556,0.061759,0.032630,0.014254,0.028203,0.008345,0.034802,0.042529,0.009253,0.002362,0.002268,-0.050010,-0.034765,0.062447,-0.076595,0.048395,-0.037339,0.045402,0.002107,-0.046229,-0.068946,-0.000000,0.065814,-0.017847,-0.091277,0.045952,0.025397,-0.052947,-0.003399,-0.066558,-0.012188,0.005050,-0.102734,0.035696,0.008344,0.052881,0.004749,-0.111581,-0.017338,0.020480,-0.058029,-0.022397,0.017306,-0.037521,0.012359,-0.007808,0.076589,-0.020098,-0.043094,0.069886,-0.066709,0.050848,-0.031285,-0.083764,-0.044291,-0.058356,0.128259,0.044024,0.073868,-0.033898,-0.024366,-0.093750,0.025070,0.011051,0.012791,0.031416,0.044409,-0.000029,0.031005,0.022770,0.018020,-0.060372,-0.072910,0.058562,-0.064059,-0.049211,0.017823,0.038390,0.060146,-0.075177,-0.037492,0.101810,0.017115,0.055610,-0.082802,0.033967,0.016893,0.072751,0.028039,0.072321,0.018011,0.038481,-0.042047,0.016315,0.027924,-0.011189,-0.013472,0.026071,0.133815,0.057087,-0.028658,0.029179,0.007422,-0.007376,-0.073705,0.038080,0.002096,0.001257,0.028334,-0.062553,-0.013671,-0.010122,-0.032015,-0.054511,-0.021552,-0.111376,-0.085623,0.000000,-0.050522,-0.004092,0.045909,-0.051231,-0.025410,0.016830,0.019030,-0.087576,-0.020471,0.016902,-0.087675,0.058751,0.022838,-0.026385,-0.004833,-0.017327,-0.029590,-0.079122,0.019292,-0.004613,-0.022521,0.067827,-0.101035,-0.017636,0.004425,0.018638,-0.078417,-0.064652,-0.028654,0.044222,-0.042647,-0.093211,-0.027183,-0.081795,-0.067595,0.018900,0.103429,-0.017764,-0.028383,-0.020663,0.090758,-0.000298,-0.070081,0.029513,-0.063013,0.017938,-0.028858,0.091263,-0.053202,0.094415,-0.025769,0.014568,-0.021261,-0.036826,-0.019874,-0.058823,-0.006127,-0.002146,-0.027011,0.047660,-0.024186,0.043991,-0.027039,0.081678,0.003329,-0.028876,-0.082658,0.024649,-0.123038,0.049841,-0.034145,0.000197,0.015839,-0.029172,0.041750,-0.033435,-0.004156,0.030762,-0.038670,0.073207,0.049060,-0.013821,0.000823,0.117539,0.112116,0.102541,0.019620,0.035698,-0.048361,-0.051809,0.003959,-0.061788,-0.064439,0.044106,-0.032725,-0.000000,-0.006151,0.065535,0.042919,-0.018865,-0.029126,-0.021067,0.021414,0.147336,-0.009768,0.037842,0.029093,0.009895,-0.053868,0.004974,0.087473,0.052404,0.021453,0.001473,-0.021810,-0.034301,0.007418,0.036855,0.013855,0.053951,0.077476,0.049491,0.018338,-0.033108,-0.065986,-0.014546,0.037574,0.023175,-0.022865,0.041461,-0.015252,0.005446,-0.028692,0.056599,-0.022390,0.014246,-0.084841,0.082220,0.084620,0.065905,-0.018409,0.106961,0.012173,0.045892,0.078121,-0.052211,-0.078296,-0.002726,0.060012,0.048810,0.105181,0.083069,0.012596,-0.090894,-0.017016,0.035219,0.054628,0.010276,-0.025616,-0.027513
0.037762,-0.045067,0.019143,-0.109914,-0.025943,0.094376,-0.025545,-0.043240,0.045583,0.032805,-0.012117,0.166077,-0.061343,-0.022125,0.035062,-0.033358,-0.018750,-0.001804,-0.008494,-0.026447,-0.003055,-0.070978,0.008975,0.014301,0.006348,0.031390,-0.072426,0.054752,0.044875,-0.123749,-0.028043,0.081654,0.095966,-0.038665,-0.050366,-0.012428,-0.019535,0.025770,0.033051,-0.013173,0.038050,-0.032504,-0.023592,0.010888,-0.088425,0.045318,-0.059754,0.000999,-0.033730,0.051865,-0.042707,-0.005722,-0.088961,-0.058590,0.051626,0.038272,0.059050,0.088391,0.038795,0.001086,-0.048926,-0.020292,0.004548,0.067129,0.107845,-0.112655,-0.004062,-0.077215,-0.070766,0.005658,0.028642,0.063846,0.041744,-0.030495,0.020527,0.052835,-0.049421,-0.004251,-0.048844,-0.052313,-0.033955,-0.073098,-0.048837,-0.005460,0.019239,-0.061087,-0.000501,-0.126246,0.002494,0.005636,0.001799,-0.004642,0.015779,0.077317,-0.029964,0.040730,-0.000993,0.028496,0.058261,0.056666,-0.002670,0.054699,-0.000129,-0.045005,0.025426,-0.064831,-0.042665,-0.003016,-0.063283,-0.038515,0.012326,0.002212,0.028135,0.039176,-0.077680,-0.010084,-0.020517,0.026587,0.015015,-0.008377,0.124122,-0.032406,-0.006801,-0.047813,-0.084377,0.042320,0.085314,-0.000000,0.039806,-0.043422,0.011088,0.046357,0.033482,-0.061558,-0.041081,0.005978,0.016520,-0.058197,0.043515,-0.017239,0.050805,0.023717,0.059527,-0.018412,-0.059666,0.010339,-0.027802,0.075744,0.022019,0.030835,0.017156,-0.109729,0.000391,0.089586,0.010856,-0.010650,-0.084830,-0.024137,0.016547,-0.049710,-0.041760,-0.007757,0.049181,0.035307,0.026901,-0.043416,0.027918,-0.059542,-0.033380,0.004795,-0.034253,-0.027623,-0.050025,0.003132,-0.039205,-0.001845,0.007758,0.067709,0.084976,0.026830,0.032638,-0.027855,0.008352,-0.028605,0.023822,-0.020130,-0.016351,-0.013245,0.151717,-0.016773,-0.011354,0.015705,0.020547,0.108484,0.077047,-0.015743,0.123207,0.018349,-0.032139,-0.034100,0.023415,0.024425,-0.010889,-0.049111,-0.074358,0.013144,0.045328,-0.056461,-0.039506,0.000831,-0.045170,-0.065123,-0.058418,-0.031275,0.043252,-0.008240,-0.004996,0.006234,0.019253,0.016574,-0.031177,0.007258,0.053535,0.000000,-0.103020,-0.012903,-0.044251,0.082835,-0.021293,-0.001115,0.009947,0.006547,0.046823,0.086524,-0.004614,-0.002436,-0.125103,-0.006576,-0.071000,-0.004311,-0.011234,0.058841,0.056226,-0.016693,0.047949,0.039187,0.017310,0.026317,0.025190,0.022620,0.037139,-0.054195,-0.043903,-0.032687,0.054058,-0.079310,-0.054375,-0.003272,-0.035228,-0.038735,0.020251,-0.004278,-0.012685,0.079729,0.027854,-0.020184,0.006901,0.066343,0.013323,0.058341,-0.002907,0.048344,0.003576,0.019099,0.016979,0.046698,-0.071131,-0.018206,-0.050477,0.036277,-0.054733,-0.074448,0.001484,0.055879,0.034344,0.047935,-0.066452,-0.058706,0.077837,0.116866,-0.029168,-0.083339,-0.029085,0.027666,-0.087664,-0.069635,-0.032168,-0.086291,-0.047098,0.058416,0.017684,0.024643,-0.056764,-0.022696,-0.056278,-0.094506,-0.052239,0.067211,-0.018019,0.162580,-0.032375,-0.050307,-0.051488,0.059586,0.026029,0.104847,0.074419,-0.015507,-0.033830,-0.000000,-0.061839,0.011021,-0.035143,0.049777,-0.028301,0.005666,-0.026664,-0.007695,-0.005797,-0.006653,0.067037,0.015444,0.039661,-0.059862,0.054910,0.017272,-0.076078,0.002772,-0.099136,0.084752,-0.008441,0.079394,0.041993,-0.030864,-0.088908,0.053039,-0.001456,0.008389,-0.030880,-0.003921,0.110537,0.022905,0.152466,-0.087300,0.060988,-0.008236,0.020692,0.006883,0.057674,0.043595,-0.065743,-0.066359,-0.050225,0.072184,0.019358,-0.047951,-0.039832,-0.011521,-0.043189,-0.105129,0.012269,0.046953,-0.043928,-0.048162,0.103857,-0.009058,0.008828,0.013371,0.054348,0.014088,0.040171,-0.014822,0.079148,0.073489
-0.014295,-0.048224,0.012963,-0.051111,-0.040852,0.028076,-0.124294,-0.084726,0.042462,0.026093,-0.004729,0.054943,-0.027740,0.004711,0.074412,-0.056654,-0.091203,-0.026577,-0.043578,0.071257,0.030001,0.010023,-0.006181,-0.004998,-0.024752,-0.007415,-0.026127,-0.095822,-0.027162,0.015944,0.022073,0.031921,-0.032408,0.008131,0.052685,0.071924,-0.018196,0.015345,0.070631,-0.016832,0.060250,-0.033185,0.000481,0.075194,-0.040538,-0.024627,0.000897,-0.076816,0.012602,0.017861,-0.033704,0.002943,0.001714,0.020607,0.037858,-0.022502,0.015036,-0.024982,-0.007734,0.043736,-0.043506,-0.013658,0.004947,-0.043268,0.012147,-0.038447,0.026700,0.075551,-0.022642,0.059901,-0.023238,-0.010333,-0.047761,0.078825,0.036437,0.083662,0.080746,0.021782,0.039506,-0.087400,0.066217,-0.029522,0.097389,0.003110,0.017711,0.050059,-0.043515,-0.004573,-0.027915,-0.022164,-0.098858,-0.082091,-0.053299,0.007773,0.011913,0.015821,-0.019880,0.073598,0.010421,0.070717,-0.036953,0.060926,-0.067172,-0.066086,0.001490,-0.060356,0.023591,0.025298,0.021725,-0.028454,0.035799,-0.009975,0.046863,0.028258,0.043927,-0.077720,-0.054135,0.005358,0.035722,0.019037,-0.003206,0.039330,-0.027556,0.029695,-0.024912,0.012314,0.061932,-0.000000,-0.035592,0.061426,0.076490,0.032664,-0.043325,0.105990,0.015564,0.036730,-0.053118,0.055122,0.011017,-0.039710,-0.002665,0.008627,0.109876,-0.062413,-0.021051,0.008270,-0.021675,-0.101081,0.069752,-0.116977,0.008066,0.001780,0.095615,-0.056713,-0.003955,0.022020,-0.008198,-0.010474,-0.078868,0.102513,-0.082363,0.103624,-0.044045,-0.056736,0.058270,-0.015496,0.007967,0.006344,-0.062567,0.016925,-0.113425,0.029621,0.094518,-0.012748,0.065004,0.003670,-0.122318,0.014959,0.018020,-0.007667,0.028170,-0.033539,-0.066722,0.045656,0.041287,0.000641,-0.032174,-0.003651,0.026412,-0.000800,-0.006693,0.038291,-0.002284,0.122862,-0.031884,-0.021914,-0.028964,-0.049549,0.033590,-0.026904,-0.049442,0.007170,-0.108130,-0.047516,0.007827,-0.031352,0.060674,-0.059660,-0.042670,-0.031554,-0.040784,-0.026469,0.136025,-0.052699,-0.016880,-0.060855,0.023124,-0.000444,-0.071624,0.031566,0.035721,-0.006620,0.010266,0.000000,0.001623,-0.056919,0.000415,0.047636,0.075729,-0.050076,0.018631,0.086611,-0.011102,0.045941,0.021538,0.023296,0.112104,0.030751,0.032058,-0.030103,0.076532,-0.007462,-0.003278,-0.024383,0.031754,-0.055411,-0.102423,0.021406,0.004079,0.084001,0.028822,-0.013951,-0.071772,0.051648,-0.097780,-0.084922,-0.126302,-0.072660,0.011979,0.077011,-0.001263,0.032139,0.025276,0.050430,0.017556,-0.097396,-0.052234,-0.028101,0.014310,0.008115,0.071919,0.073882,0.029134,0.036859,0.047237,0.021620,-0.050354,-0.060201,-0.001105,-0.051421,-0.042967,0.009165,0.018401,-0.050365,-0.008908,0.026573,0.051700,0.032739,0.088659,0.003182,0.006190,0.004318,-0.027808,0.070524,0.021626,-0.003442,-0.122862,0.110674,0.020137,0.028776,0.020569,0.013806,-0.010898,-0.085034,0.013619,-0.053361,0.002888,-0.065017,0.056520,-0.050367,-0.004310,0.006764,0.056801,0.009218,-0.055578,-0.081165,0.089558,-0.052359,-0.001211,-0.000000,0.032110,0.053379,0.074895,0.025607,0.066002,0.143901,0.020200,0.102601,0.044652,0.005151,0.053280,0.082604,0.022401,0.045374,0.014628,-0.022848,-0.024240,-0.048678,-0.054535,0.085407,-0.105833,0.040312,-0.021367,-0.026029,-0.073110,0.002683,-0.096209,0.062715,-0.008473,-0.034762,-0.049455,-0.050980,-0.058367,0.059144,0.025618,-0.100128,-0.012638,0.030299,0.022229,-0.042895,-0.080254,0.095555,0.005416,0.076321,-0.013881,-0.037701,-0.057203,0.008742,-0.064545,0.028738,0.054534,0.011414,-0.019311,0.001628,0.030340,-0.011309,-0.054780,-0.013443,-0.093198,0.031385,0.026240,-0.067339,0.083689,0.023950
0.041463,-0.006034,0.055344,-0.052650,0.008087,0.025938,-0.148463,-0.027959,-0.001991,-0.037438,-0.011776,0.134858,-0.028928,-0.017656,0.104331,-0.007784,0.068138,-0.035725,-0.037148,0.036074,-0.032172,0.029076,0.015574,0.011576,-0.029115,-0.011856,-0.018825,-0.004010,0.014045,-0.019414,-0.054601,0.000132,0.003411,-0.031978,0.058329,0.042419,-0.014208,0.083499,0.061590,-0.045484,-0.000947,-0.049633,-0.120131,0.073548,-0.080195,-0.034508,0.021009,-0.111993,-0.041338,0.012554,-0.030460,-0.023479,-0.039959,-0.024926,-0.024602,0.033405,0.011535,-0.037016,0.015504,-0.010333,0.040479,-0.029927,0.021719,0.005205,0.007764,-0.078551,0.000784,0.011211,-0.109016,-0.003562,0.033891,-0.029997,0.015286,-0.027121,0.019525,0.022551,0.054269,0.102812,0.126746,-0.056452,0.058444,-0.026697,-0.006016,0.029444,-0.067948,-0.056780,-0.009127,-0.067236,0.081456,-0.043072,-0.021368,0.003207,0.006254,-0.027645,-0.040988,0.029869,-0.046200,0.037376,-0.017680,0.000786,-0.025375,0.085823,-0.016066,-0.114687,-0.015194,0.025589,-0.006317,0.038955,-0.010396,-0.007135,0.011783,0.014657,-0.000848,-0.021537,0.045602,-0.014075,-0.000738,-0.070327,0.084956,0.017640,0.022177,0.033419,-0.093833,-0.014788,-0.012123,-0.027263,-0.083205,-0.000000,-0.002250,0.129415,0.037419,-0.029617,-0.008288,0.026723,0.021194,-0.027281,-0.027565,-0.011359,-0.008646,-0.002679,0.038902,0.006486,0.132964,-0.126994,-0.038323,0.021587,0.037642,0.003471,0.006377,-0.112980,-0.017242,0.001186,0.066980,0.002751,0.091006,0.019100,0.016859,-0.026608,0.017634,0.069200,0.032985,0.086347,-0.051184,-0.012545,-0.017871,-0.020855,-0.033859,-0.028282,-0.061877,0.070152,-0.037714,0.004671,0.074363,-0.015438,0.122024,-0.016710,-0.065524,-0.058629,-0.009705,0.059110,-0.012923,0.009316,0.012943,-0.029495,0.039842,-0.063005,0.038084,-0.004018,0.010851,0.001789,0.014549,-0.035422,-0.026484,0.042183,0.056413,0.033651,-0.000396,-0.016890,0.003307,-0.016881,0.045794,0.066053,-0.008230,-0.002278,-0.088609,0.046225,0.128779,-0.068203,-0.032116,-0.011121,0.017673,-0.004888,0.103476,-0.048142,0.054277,0.068428,-0.032424,0.050300,-0.082902,0.061531,-0.056021,0.141892,0.016332,0.000000,-0.048970,-0.058776,0.051039,0.035956,-0.050978,-0.013370,0.083685,-0.048647,0.024154,0.020609,-0.053079,0.000128,-0.040242,0.012280,-0.072267,-0.010770,-0.002065,-0.073191,0.045710,-0.073660,-0.022875,0.133402,-0.001539,0.109480,0.029057,0.046137,-0.087925,-0.004240,-0.035718,-0.040303,-0.103145,-0.044952,-0.091713,0.026376,-0.002809,0.026389,0.023720,-0.080223,-0.008981,-0.003538,0.059948,-0.063234,-0.028094,0.002029,0.045419,-0.038223,-0.000183,-0.033152,-0.030603,-0.031387,0.018187,0.023765,-0.060541,-0.002065,-0.023231,0.060426,0.106159,-0.049395,0.057857,-0.000602,0.009670,0.081770,0.085870,-0.077279,0.061656,0.081854,0.025684,0.065759,0.069850,-0.012147,0.033523,-0.033155,-0.074025,-0.016901,-0.044399,0.064421,0.067076,-0.061374,-0.018178,-0.039178,0.022501,-0.043697,0.009159,-0.027087,-0.028712,-0.025309,-0.038066,-0.058527,0.023218,-0.027168,-0.181361,0.003677,0.001005,-0.013726,-0.018415,-0.000000,-0.016052,0.004764,0.024108,-0.013966,-0.029278,-0.021781,-0.026055,0.105893,0.055745,0.010254,0.038988,0.020676,0.038398,0.079673,-0.044525,0.057196,-0.014568,0.001219,0.000686,-0.012919,-0.035723,0.141068,-0.034646,-0.021783,-0.013151,0.011996,-0.041511,0.036898,-0.055712,-0.045757,0.028867,0.003629,0.045065,0.076176,0.055249,-0.065790,-0.047458,0.063955,-0.047758,0.016499,-0.079223,-0.000142,-0.005196,0.093170,0.024143,-0.074218,-0.109910,0.026318,-0.053202,-0.065648,0.023935,-0.004178,0.039674,-0.046496,0.067289,-0.035225,0.007255,-0.009031,-0.059626,0.035631,-0.051239,-0.089092,0.079003,0.067470
0.022167,0.043108,-0.000975,-0.028911,0.032391,-0.001557,-0.100758,-0.041489,-0.036452,0.031624,-0.021079,0.118267,-0.003422,-0.007282,-0.061859,0.018427,-0.086114,-0.119986,-0.006648,-0.009762,0.035778,0.013258,0.049844,-0.011893,-0.035657,0.031762,-0.051263,-0.059485,0.055170,0.031162,0.037847,0.106276,-0.008899,0.010346,0.051813,0.118168,0.017078,0.020224,0.006689,-0.008499,0.042585,-0.147296,-0.070715,-0.061449,0.012569,0.024547,-0.048093,-0.108925,-0.034187,-0.059330,-0.018555,-0.041172,0.033273,-0.004102,0.010101,-0.010824,0.020393,-0.099657,-0.031666,0.027412,0.044718,0.039686,-0.111405,0.034546,0.078258,0.044037,-0.002875,-0.009275,0.092060,-0.015272,0.009831,-0.012032,-0.034792,-0.003688,-0.007976,-0.014566,-0.026844,0.033642,0.076565,0.018670,0.068578,0.032873,0.045467,-0.045892,0.036934,0.010472,-0.019705,-0.050160,0.026109,0.047750,-0.074147,0.057103,0.082190,-0.034490,-0.041486,0.041821,-0.028911,0.045218,0.039164,-0.023364,-0.039532,0.020266,-0.039891,-0.100547,-0.042855,-0.050020,-0.069819,0.053946,0.013306,-0.026119,-0.069747,-0.015986,0.007676,0.081658,0.002524,0.133483,0.016068,-0.005197,0.069469,0.081577,0.076906,0.035695,0.011174,-0.026153,-0.008179,-0.049922,0.036384,-0.000000,-0.034314,0.017680,0.065594,-0.006338,-0.084320,0.049999,-0.091625,-0.005121,0.007739,-0.014879,0.075917,-0.006234,-0.030721,0.025948,0.019876,-0.151073,0.023819,0.097031,0.045365,-0.016512,0.030249,-0.000650,-0.008609,0.067454,0.100072,-0.034284,0.025488,-0.001623,-0.010281,0.013611,0.040221,0.058943,-0.092746,-0.012826,-0.014617,0.024172,-0.016886,0.062335,0.016986,-0.007784,-0.026708,-0.024092,-0.001792,0.014602,0.048780,0.003643,0.012877,0.003322,-0.031263,0.004008,0.033059,0.035224,-0.002918,-0.035491,-0.027054,0.005489,-0.007351,-0.065708,-0.036876,-0.041471,0.006228,0.044654,-0.152598,0.119394,0.011121,0.023784,0.020469,0.033027,-0.009444,-0.009873,0.018524,-0.022847,0.026703,-0.079846,-0.044340,-0.065677,-0.021447,0.043941,0.017216,0.068024,-0.045516,0.066418,-0.024683,-0.054845,0.105941,-0.006191,-0.007076,0.021962,0.033742,0.015286,-0.032464,-0.023119,-0.030823,0.022950,0.033508,0.000000,0.028312,0.009792,-0.070861,0.014723,0.010890,-0.050177,-0.075268,-0.034577,-0.026368,0.051478,-0.082242,0.030088,0.027475,0.067333,-0.057263,-0.032356,0.047063,0.056480,-0.061129,-0.036609,-0.033147,0.106004,0.002558,0.020515,-0.049424,0.009668,-0.040122,0.003263,0.055072,-0.005215,-0.042534,-0.074969,-0.112110,-0.022827,-0.053712,-0.018319,0.020382,-0.011135,0.051173,-0.013371,0.047021,-0.026944,-0.076746,-0.004201,0.036252,0.012062,0.022219,0.023092,-0.026269,-0.003999,0.065012,0.049842,-0.060274,-0.067791,-0.039299,0.007732,0.069322,0.013012,-0.099318,-0.036892,0.043813,0.051444,0.053519,0.021203,0.085887,0.026733,0.044058,-0.032063,-0.017404,-0.040507,0.083182,0.033832,-0.176717,0.054138,-0.013672,-0.070329,0.009701,-0.074862,-0.033246,-0.009331,-0.100432,-0.076385,0.087605,-0.019394,0.038792,-0.063056,-0.052727,-0.102911,0.010980,0.116173,-0.052998,-0.090603,-0.072735,0.018688,0.042761,-0.000000,0.051096,0.009476,0.021710,0.007471,0.043769,0.038255,0.090174,0.001986,0.061197,-0.013883,0.019452,0.042656,0.019284,0.083171,0.013750,-0.030857,0.078735,0.015811,-0.075980,-0.043479,-0.016997,-0.009737,0.008272,0.068256,-0.032479,0.011370,-0.007906,0.015864,-0.004748,-0.032817,0.015776,0.006600,-0.001989,0.073637,-0.024338,-0.092298,0.039183,0.009412,0.042750,-0.078148,-0.093572,0.090228,-0.014042,0.121012,0.017795,-0.033988,-0.092566,0.020393,-0.011384,0.063939,0.058604,-0.073480,0.041972,0.040622,0.033265,0.000639,0.036720,-0.007521,-0.006847,0.010539,0.038077,-0.082271,0.108341,0.056002
