e0,e1,e2,e3,e4,e5,e6,e7,e8,e9,e10,e11,e12,e13,e14,e15,e16,e17,e18,e19,e20,e21,e22,e23,e24,e25,e26,e27,e28,e29,e30,e31,e32,e33,e34,e35,e36,e37,e38,e39,e40,e41,e42,e43,e44,e45,e46,e47,e48,e49,e50,e51,e52,e53,e54,e55,e56,e57,e58,e59,e60,e61,e62,e63,e64,e65,e66,e67,e68,e69,e70,e71,e72,e73,e74,e75,e76,e77,e78,e79,e80,e81,e82,e83,e84,e85,e86,e87,e88,e89,e90,e91,e92,e93,e94,e95,e96,e97,e98,e99,e100,e101,e102,e103,e104,e105,e106,e107,e108,e109,e110,e111,e112,e113,e114,e115,e116,e117,e118,e119,e120,e121,e122,e123,e124,e125,e126,e127,e128,e129,e130,e131,e132,e133,e134,e135,e136,e137,e138,e139,e140,e141,e142,e143,e144,e145,e146,e147,e148,e149,e150,e151,e152,e153,e154,e155,e156,e157,e158,e159,e160,e161,e162,e163,e164,e165,e166,e167,e168,e169,e170,e171,e172,e173,e174,e175,e176,e177,e178,e179,e180,e181,e182,e183,e184,e185,e186,e187,e188,e189,e190,e191,e192,e193,e194,e195,e196,e197,e198,e199,e200,e201,e202,e203,e204,e205,e206,e207,e208,e209,e210,e211,e212,e213,e214,e215,e216,e217,e218,e219,e220,e221,e222,e223,e224,e225,e226,e227,e228,e229,e230,e231,e232,e233,e234,e235,e236,e237,e238,e239,e240,e241,e242,e243,e244,e245,e246,e247,e248,e249,e250,e251,e252,e253,e254,e255,e256,e257,e258,e259,e260,e261,e262,e263,e264,e265,e266,e267,e268,e269,e270,e271,e272,e273,e274,e275,e276,e277,e278,e279,e280,e281,e282,e283,e284,e285,e286,e287,e288,e289,e290,e291,e292,e293,e294,e295,e296,e297,e298,e299,e300,e301,e302,e303,e304,e305,e306,e307,e308,e309,e310,e311,e312,e313,e314,e315,e316,e317,e318,e319,e320,e321,e322,e323,e324,e325,e326,e327,e328,e329,e330,e331,e332,e333,e334,e335,e336,e337,e338,e339,e340,e341,e342,e343,e344,e345,e346,e347,e348,e349,e350,e351,e352,e353,e354,e355,e356,e357,e358,e359,e360,e361,e362,e363,e364,e365,e366,e367,e368,e369,e370,e371,e372,e373,e374,e375,e376,e377,e378,e379,e380,e381,e382,e383
-0.072744,0.094764,-0.054506,0.011418,-0.031391,-0.032759,0.004025,-0.101820,0.002489,-0.025749,0.029648,0.015885,0.037178,-0.062342,0.003017,0.042963,-0.062055,0.043166,-0.067206,0.002392,-0.012328,0.037471,-0.070035,0.000082,0.024175,0.010425,0.060957,0.064970,0.044055,-0.069805,-0.014571,0.006671,0.047638,0.045571,0.062774,0.119347,0.018546,-0.016668,-0.081793,0.006775,-0.022451,-0.058425,-0.020459,0.038434,-0.028792,0.048751,-0.112594,-0.036472,-0.001008,-0.103147,-0.033258,0.039574,-0.021348,0.062516,0.064794,0.032470,-0.058986,-0.088014,0.031359,0.003216,-0.001661,0.062019,-0.048611,0.080880,0.044214,0.073100,-0.061143,0.001884,0.023933,0.035677,-0.053382,-0.037466,0.054117,0.040095,-0.016126,0.018213,-0.022197,0.063928,-0.008786,-0.010894,0.005600,-0.029731,-0.029329,0.022831,0.000014,0.056083,-0.093428,-0.032933,0.040227,0.016366,-0.047047,-0.009656,0.132223,0.028705,-0.082518,-0.022017,0.024067,-0.001153,-0.106311,0.103226,0.022036,0.044837,-0.017245,-0.011091,-0.059024,-0.068592,0.027853,0.019837,0.015403,-0.054372,-0.046835,-0.053603,-0.018526,-0.072873,-0.044358,-0.067692,-0.035843,-0.065580,0.087506,0.087164,0.012515,-0.058131,-0.118227,0.074775,0.004483,-0.055080,0.011074,-0.000000,0.011988,-0.040222,0.041601,-0.094841,-0.013913,0.034932,-0.094245,-0.065776,-0.061689,-0.043234,0.085282,-0.004789,-0.014338,0.028747,0.005900,-0.034448,0.041889,0.068789,0.005129,-0.030824,0.005286,0.032858,-0.053160,-0.014786,-0.024507,0.016820,-0.030933,-0.057068,0.018226,0.040600,-0.017644,-0.012598,-0.016660,0.005459,0.025570,0.012941,-0.049340,0.032045,0.009947,-0.005599,-0.036147,-0.084102,-0.062484,-0.034893,0.008066,0.014150,-0.016364,-0.014683,-0.006016,-0.064729,0.027009,0.075059,0.019585,0.015952,0.067441,-0.034994,0.043804,0.049645,-0.011670,-0.003379,-0.106691,0.055753,0.024442,0.000853,-0.001310,0.013362,-0.038577,0.039046,0.075316,0.028595,-0.076868,0.076601,-0.002456,0.119691,-0.133391,0.026748,-0.084777,0.012078,0.053174,0.085494,0.021539,0.043538,-0.019995,-0.040707,0.032513,-0.036839,-0.007883,-0.087910,-0.011639,-0.010262,-0.065042,0.029273,0.003549,-0.064172,-0.011485,-0.000000,0.020314,-0.013379,-0.065306,0.015187,-0.030924,0.083307,0.087255,0.045269,-0.005524,0.148501,0.056791,0.019202,0.008161,-0.076286,0.153443,0.098055,0.000595,0.105653,-0.022058,-0.035764,-0.026907,-0.027503,-0.007036,0.046944,-0.013179,-0.006052,0.053565,0.131207,-0.038858,-0.005005,0.101910,-0.017124,-0.065678,0.003586,-0.006669,-0.082194,-0.007675,0.011068,-0.001566,0.008489,0.040677,0.049349,-0.014131,0.058411,-0.060823,-0.016435,-0.036243,0.000585,0.032056,-0.118675,0.022825,-0.048171,0.028577,-0.006806,-0.007135,0.086417,-0.008800,0.069325,0.066749,-0.001172,-0.009952,-0.028804,-0.014305,0.005525,0.086023,-0.096729,-0.004337,0.039671,-0.073712,-0.042304,0.084148,-0.000616,-0.126922,-0.095159,-0.018958,0.017642,0.071462,0.012441,-0.080980,-0.052865,-0.010262,0.008124,-0.000130,0.034596,-0.013840,-0.016681,-0.054506,0.020303,-0.056266,0.031466,0.004032,0.023495,-0.064932,0.061950,0.009187,-0.000000,-0.044452,-0.072373,-0.018107,-0.035682,0.039342,-0.025268,-0.050446,-0.045504,-0.079260,-0.000821,0.079666,-0.015769,-0.049852,0.003105,-0.015324,-0.003707,0.105162,0.018159,-0.004914,-0.011421,0.085467,0.004969,0.067883,0.032306,-0.056951,0.043191,-0.056170,0.055650,0.016149,-0.059670,0.046666,0.053927,0.012196,-0.038253,0.024580,0.051520,0.009819,-0.001114,-0.031147,-0.012361,0.015299,-0.003970,0.019644,0.061177,-0.065658,-0.028504,0.074560,-0.115250,-0.028205,-0.133830,-0.033337,-0.005094,0.005858,-0.050017,0.012530,-0.018207,-0.001585,0.015508,-0.025639,0.040231,0.114799,0.032928,-0.012089,0.035947
-0.005627,0.013992,-0.028381,0.048731,0.020195,0.006602,-0.006064,-0.031451,-0.006117,0.030921,-0.015691,0.040716,-0.019866,0.086945,0.022969,-0.041007,-0.077324,-0.012240,0.003294,0.008607,-0.042961,0.032257,0.081605,0.015469,-0.005071,-0.002476,0.002258,-0.014155,0.000724,-0.053438,0.000688,0.017675,-0.002102,0.031309,0.044188,-0.013165,0.054394,0.003993,0.066540,0.011762,0.029898,-0.026347,0.069068,-0.010832,-0.022059,0.016503,-0.004751,-0.028330,-0.003827,-0.033979,-0.022555,-0.043237,-0.022939,0.012661,0.033342,0.079914,0.024449,0.016082,0.001359,0.032371,-0.072212,-0.019952,-0.070787,0.071303,0.073132,-0.003855,-0.056525,0.005435,-0.054477,0.031854,-0.095069,0.046286,0.050871,0.030647,0.042024,0.076232,-0.007930,-0.056383,0.046522,-0.050226,0.010830,-0.026433,-0.010648,-0.007245,0.068616,0.000984,0.047092,-0.029834,-0.121173,-0.007332,0.022741,-0.008141,0.010832,0.029713,-0.010350,0.048116,-0.020886,-0.020322,-0.013752,0.035829,-0.038366,0.035056,-0.006014,0.043046,-0.029126,-0.016826,0.035465,-0.092322,0.065394,-0.070233,-0.003139,0.022663,0.051415,0.103844,0.024190,-0.020825,-0.069980,0.041218,-0.017306,0.020233,-0.023842,0.020437,0.034148,0.009068,0.038827,-0.048839,-0.008964,-0.000000,0.092148,0.019896,0.073182,0.116080,-0.066134,0.072761,-0.015377,0.020858,0.039481,-0.008156,0.061928,0.119987,0.030968,0.044257,-0.021935,0.106480,-0.099653,0.028277,-0.067301,0.011567,0.056084,-0.103053,-0.012300,-0.114693,-0.027686,-0.065744,0.047775,0.062205,-0.035719,-0.006700,-0.067028,0.050504,-0.119189,0.099004,-0.013143,0.037707,0.028064,0.023859,-0.023245,0.002366,-0.004314,-0.010401,0.018934,-0.022977,0.055589,-0.013266,-0.027849,-0.078923,-0.037024,-0.032097,-0.035747,-0.021155,0.003067,-0.076233,-0.004859,0.081394,-0.002500,-0.017853,-0.045741,0.067381,-0.040940,0.021776,-0.015410,0.004070,-0.050299,0.071434,-0.068479,-0.029650,-0.010293,0.014778,-0.052425,0.009401,-0.042314,0.003695,0.012240,-0.047500,0.062015,0.033856,0.072142,-0.063902,0.037440,-0.086425,0.034561,-0.087774,-0.023792,0.014049,0.071324,-0.106137,-0.009035,-0.023194,0.024080,-0.013343,0.015377,-0.026940,-0.034634,0.000000,-0.125719,0.008334,0.003899,0.130822,0.039131,0.012566,0.075031,-0.009505,-0.073607,0.071271,0.096202,-0.001506,-0.101500,-0.042031,-0.049828,-0.041284,0.017455,-0.067367,0.005786,-0.080167,-0.069435,0.106063,-0.004045,-0.002719,-0.085610,0.041238,-0.027648,-0.030339,-0.042083,0.023797,0.017516,0.042780,-0.097449,0.055052,0.010627,0.031484,0.093915,-0.018917,0.025750,0.124236,0.021158,0.067100,-0.049841,-0.009072,0.009825,0.070672,0.085573,-0.043307,-0.068577,0.056869,-0.030249,-0.032650,-0.107194,-0.105750,-0.021789,0.008489,0.045597,-0.028821,0.011721,0.002230,-0.077521,0.066102,-0.011599,0.035288,0.025456,-0.030169,-0.023766,0.063626,0.003282,0.028292,-0.012069,-0.009745,-0.019324,-0.037520,-0.000273,-0.029511,0.011966,-0.078314,-0.066666,-0.027691,-0.005644,-0.074618,-0.037235,0.055761,0.023060,0.053567,0.061313,0.030748,0.040043,0.019703,-0.115127,0.031640,-0.026532,-0.155211,-0.030946,-0.000000,-0.018301,0.007642,-0.006883,0.071373,-0.020432,0.007248,-0.031901,0.083426,-0.091703,-0.005181,0.021497,0.118741,-0.053946,0.086450,0.094113,0.016229,0.025406,0.049662,-0.057335,0.015616,0.050374,0.079151,0.044938,0.013191,-0.034108,0.005985,-0.005893,0.068305,-0.011407,0.013432,0.048074,-0.063470,-0.020825,-0.062466,0.052032,0.044721,0.007592,-0.025135,0.059277,0.069539,-0.124009,-0.024466,0.014063,0.113298,-0.042872,-0.074114,-0.080726,0.055552,-0.043315,-0.062609,-0.030748,0.019321,-0.008977,-0.009647,0.084781,-0.013342,-0.011997,-0.066550,-0.098077,0.003210,0.144981,0.054660,0.055185,0.012833
0.064988,0.008139,-0.032732,0.007117,0.021123,-0.031738,-0.066323,0.031429,-0.080075,0.052720,0.019520,0.118467,0.023838,0.056645,-0.009708,-0.009501,-0.022335,-0.105630,0.004738,0.031219,-0.057608,0.080722,0.047259,0.045425,0.028154,0.031686,-0.047058,-0.030775,0.006756,0.040444,-0.018373,0.059210,0.011887,0.045480,0.074229,-0.064596,0.073037,-0.012845,0.008510,-0.005647,-0.051080,-0.046921,0.062485,0.040934,-0.051266,0.003098,-0.005980,-0.028042,-0.046870,0.052428,-0.015031,-0.019723,0.032707,-0.089151,0.018520,-0.040723,-0.048073,-0.017115,0.011234,-0.036565,-0.089607,0.026333,-0.064446,0.056886,0.067594,0.027856,-0.043744,-0.100716,0.073122,0.000919,-0.081413,0.028031,0.030928,0.072109,0.027905,0.059404,0.024642,-0.007623,0.077231,-0.036363,-0.006766,-0.084985,-0.057985,-0.020327,0.081367,0.005228,-0.002207,-0.051845,-0.070154,-0.017305,-0.013359,-0.041176,-0.006106,0.025421,-0.033744,0.027013,-0.020245,-0.041367,0.031162,0.015769,0.018102,0.031964,-0.030808,-0.037791,-0.092466,0.023920,0.148490,-0.128524,0.044629,-0.037643,-0.025434,0.064793,0.050886,0.066546,0.013137,-0.046503,-0.058156,0.099298,0.012671,0.020246,0.004759,0.017976,0.092336,-0.028874,0.004473,-0.003480,0.038174,-0.000000,0.039305,0.004825,0.027066,0.101186,0.021107,0.011741,-0.056474,0.009031,0.096925,-0.005228,-0.053255,0.007104,0.034488,-0.024624,0.047562,0.119264,-0.066665,-0.008088,-0.096128,0.044360,0.007847,-0.097275,-0.020365,-0.089055,0.046443,0.005998,0.002820,0.043999,-0.013743,0.028651,-0.054108,0.073570,-0.104232,0.064581,-0.021421,0.058708,0.040813,-0.014897,-0.018579,0.050494,-0.041359,-0.009578,0.012627,-0.008333,0.047131,-0.050493,-0.107267,0.009149,0.017892,0.039422,-0.057406,0.032542,-0.006885,-0.119164,0.026832,0.035379,0.023629,0.051241,-0.022933,0.086838,-0.056179,0.011869,-0.090716,-0.024375,-0.015062,0.057546,-0.009190,-0.064627,-0.060678,0.045245,-0.034767,-0.003272,-0.068008,-0.071526,-0.004306,-0.027167,0.022703,0.057587,0.086112,-0.007551,0.074038,-0.037500,-0.009640,-0.024039,0.019054,0.008995,0.079994,-0.034953,-0.019700,-0.015714,0.004206,-0.018219,0.048363,-0.049753,-0.021967,0.000000,-0.080059,0.052686,0.008970,0.055654,-0.006535,-0.010116,0.041236,-0.091551,-0.053969,-0.005321,0.098437,-0.003963,-0.075823,0.006102,-0.077364,-0.030017,0.015077,-0.093078,0.078918,-0.023852,0.060954,0.073898,-0.019594,0.008781,-0.057241,0.036263,-0.021755,0.005155,-0.066609,-0.038861,0.097641,0.081607,-0.049412,0.090310,0.068177,0.076180,0.054395,0.024744,-0.087751,0.010218,-0.005683,0.012812,-0.115342,-0.006636,-0.013399,0.001755,0.076300,-0.005149,-0.053487,0.044380,-0.053594,-0.011298,-0.105462,0.004372,-0.019998,0.029476,0.049186,-0.090535,-0.008541,0.012678,-0.084991,0.039676,-0.029414,0.007006,0.012130,-0.041397,0.080244,0.117164,0.023076,0.058820,0.016672,0.000251,-0.009898,0.074638,0.024487,0.015052,-0.041813,-0.059457,-0.055026,0.025754,0.010174,-0.100416,-0.066889,0.031650,0.008294,0.070718,-0.007202,-0.105541,-0.001719,-0.002648,-0.007154,0.000758,0.018178,-0.055169,-0.021628,-0.000000,0.026185,0.051663,0.009283,0.057426,-0.078608,-0.018924,0.000040,0.027027,-0.083929,-0.038633,-0.012041,0.001333,-0.016137,0.075731,0.052775,-0.008919,0.004300,0.042294,-0.055119,0.023104,0.007125,0.104001,0.001391,-0.017777,-0.049949,0.079533,-0.040335,0.022641,-0.028974,0.015435,0.028304,-0.028728,-0.035028,-0.046275,-0.010750,0.013983,0.053181,0.004323,0.035816,-0.012051,-0.083042,0.074298,0.028217,0.098408,0.024880,-0.051341,-0.089884,0.014812,-0.031517,-0.157094,0.035681,0.033539,-0.068009,0.032260,0.044918,0.045636,-0.000787,-0.075482,-0.080699,-0.046455,0.076248,0.008337,-0.072125,0.006571
0.010753,-0.050164,0.000799,-0.000292,0.026654,-0.001238,-0.064729,-0.135399,0.027115,-0.053871,0.000750,0.098312,-0.016297,-0.004310,0.034580,0.022714,-0.135805,0.008850,0.033683,0.026728,-0.072389,0.069392,0.047139,0.008339,-0.028183,0.053868,0.048839,-0.012445,0.012230,-0.081469,0.006225,-0.018775,-0.037287,-0.008781,0.032592,0.029378,0.048603,0.047100,0.067249,-0.042104,-0.016257,-0.003425,-0.051947,0.018646,-0.020230,0.081781,-0.101788,0.001860,-0.016852,-0.020884,-0.051291,-0.006106,0.002204,0.027913,0.068109,0.110415,-0.021465,0.035660,0.002741,-0.019832,-0.090063,0.022782,-0.053264,0.051400,0.020318,-0.057347,-0.021008,0.053928,-0.034514,-0.015559,-0.106702,0.068989,0.042245,0.040497,-0.002053,0.076239,-0.009118,-0.002775,0.006437,-0.066264,0.034211,0.022155,-0.024130,-0.055060,0.027418,-0.037843,-0.008625,-0.021566,-0.021988,-0.043027,-0.012374,0.006648,0.083570,0.000580,0.022806,0.003821,-0.026414,0.030756,-0.002332,0.065293,-0.073436,-0.007114,-0.052771,-0.005493,0.025203,-0.011297,-0.030952,-0.046870,0.042228,-0.085244,0.024846,0.017298,-0.055065,0.065417,0.072898,0.042247,-0.006753,0.029078,0.015822,0.018156,-0.048096,0.041361,0.026314,0.028297,0.072038,-0.134436,-0.013443,-0.000000,0.022249,0.004812,0.048918,0.097430,-0.043217,0.109921,-0.020823,0.040679,0.038267,-0.048441,-0.006693,0.134891,-0.002179,0.024341,-0.030433,0.039596,-0.025467,0.058953,-0.014337,-0.064341,0.026091,0.015458,0.012067,-0.065766,0.015462,-0.024516,0.094136,0.077674,0.015939,-0.015691,-0.033309,0.051786,-0.046525,0.029420,-0.028438,-0.031030,0.049947,-0.021439,-0.044085,-0.077212,0.012712,0.018418,-0.000560,0.004005,0.028772,-0.005760,0.079850,-0.048830,-0.111128,-0.046733,-0.028501,-0.007217,-0.003283,-0.024219,-0.051506,0.071966,-0.082034,0.006889,-0.030698,-0.032021,-0.014653,0.020220,-0.002982,-0.006259,0.039157,0.194936,-0.026410,0.034230,-0.069777,0.029537,-0.001371,0.019853,0.002094,0.012534,-0.028446,-0.025323,-0.002450,-0.049508,0.107662,-0.011330,-0.038858,-0.014765,0.013114,-0.069628,0.003923,0.039988,0.104754,-0.109609,0.053908,0.080378,-0.011130,-0.003420,0.054743,-0.008676,-0.016254,0.000000,-0.076980,0.022835,0.030670,0.072463,0.006724,0.016213,-0.026948,0.004079,-0.084004,0.057249,0.038940,-0.055321,-0.038596,0.003665,0.008444,-0.020740,0.088380,-0.004224,0.018500,-0.016484,0.004755,0.028560,-0.101597,0.017532,-0.037087,0.078647,0.022791,0.078430,-0.045494,0.043252,0.031087,-0.070115,-0.055021,-0.013104,0.000790,0.039784,0.004732,-0.036848,0.036807,0.040880,0.014747,-0.050187,-0.050475,0.021206,0.017646,-0.015921,0.097773,0.006735,-0.027420,-0.082662,-0.016638,-0.009668,-0.107662,-0.199096,-0.001519,-0.013334,0.090945,-0.000035,0.002150,-0.045015,-0.016959,0.023875,0.017736,0.049121,0.064406,-0.004445,0.009814,0.100565,-0.017766,0.064753,0.019370,-0.020640,-0.078170,-0.093324,0.037227,0.009554,-0.005250,-0.049208,-0.053691,-0.027259,0.041906,-0.029864,-0.008836,0.068752,0.074358,0.091405,0.050817,-0.011731,0.113450,-0.017136,-0.048987,-0.037733,0.009285,-0.150001,-0.082697,-0.000000,-0.029653,0.015672,0.011986,0.029162,0.032679,0.062322,-0.025350,0.066443,-0.104986,0.054702,0.028919,0.090923,0.024298,0.058774,0.060434,0.069071,0.049619,-0.039130,-0.024408,0.040998,0.042796,0.044546,0.005341,-0.004221,-0.042251,-0.020098,-0.103520,-0.001066,-0.016403,-0.015417,-0.003428,-0.060067,-0.046694,-0.055429,0.080806,-0.064015,-0.044649,-0.018024,0.059161,-0.011356,-0.064233,0.010337,0.022285,0.098437,-0.031320,0.000116,0.002133,-0.010298,-0.015304,-0.030954,-0.043086,0.033550,0.017771,-0.010355,0.174180,-0.088768,-0.030768,-0.030893,-0.002270,0.033983,0.046127,-0.039939,0.095746,0.024615
-0.121787,-0.056023,0.017050,0.035472,0.016768,-0.077155,-0.085420,0.045443,-0.001894,-0.017062,-0.028792,-0.033134,-0.028917,0.053722,-0.060757,-0.042578,0.045832,0.003015,-0.081452,0.025019,0.101166,-0.046699,0.004227,-0.012203,-0.121662,0.108056,-0.010606,0.020328,0.024110,-0.042756,-0.020074,0.026998,-0.032725,-0.041885,0.006284,-0.009161,0.040909,0.022878,-0.028867,0.014131,-0.018672,-0.083811,0.109338,0.028899,0.043537,0.054345,0.060756,-0.059863,-0.062445,0.017597,0.010479,-0.055866,-0.007155,-0.023474,-0.041940,-0.048655,-0.016046,-0.039638,0.018948,-0.033508,0.027693,0.101969,-0.047088,0.076310,0.077448,-0.041279,-0.064930,0.074065,0.059707,-0.064452,0.005786,0.053190,-0.032792,-0.002819,0.017471,-0.100512,-0.050514,0.025808,0.010736,0.014598,-0.007212,-0.022445,-0.015109,0.014511,-0.072703,0.046068,0.049101,0.002527,-0.041012,0.040591,-0.055270,0.068312,-0.045000,-0.044138,0.001333,0.100976,-0.014915,-0.028854,0.088386,-0.046436,-0.088130,0.040080,0.045193,0.038958,0.002611,-0.020264,0.044388,0.032014,0.072204,0.059829,-0.041318,-0.030422,0.039377,0.040916,0.039025,-0.022343,-0.059322,-0.002602,-0.103046,0.022505,0.045858,-0.046579,-0.055286,-0.010622,0.068368,0.083657,-0.084174,-0.000000,0.025392,-0.084311,-0.011604,0.101535,0.022890,-0.042855,-0.015767,0.025814,0.055240,0.023266,-0.006971,0.068511,-0.085081,0.106352,-0.087699,-0.084324,-0.010781,-0.004851,-0.075086,-0.005334,0.000500,-0.026024,-0.001302,-0.053182,0.008836,0.017429,-0.070079,-0.025087,0.033706,0.022279,-0.021810,0.049789,-0.094357,0.066824,-0.043274,0.114068,0.016445,-0.043720,-0.018381,0.017331,-0.014849,-0.013898,0.021107,0.029169,-0.042325,-0.033070,-0.000702,0.025842,0.048191,-0.073252,0.070111,0.043216,-0.008377,0.028272,0.082539,0.074789,0.054469,-0.052404,-0.116755,0.038503,-0.026818,0.077205,-0.038900,-0.030712,0.025183,0.056007,-0.050170,-0.008422,0.061121,-0.033020,-0.039972,-0.023609,0.017029,-0.048294,0.000209,0.040869,-0.022058,0.014071,0.004946,0.004602,0.024876,-0.087999,0.044882,-0.027647,-0.057816,0.020286,0.036301,0.030628,-0.097639,-0.060106,0.061265,-0.038574,0.032869,-0.042594,0.072150,-0.000000,-0.031460,0.021072,-0.082497,0.100208,0.110184,0.077265,0.011180,0.043047,0.018588,0.002682,-0.023912,-0.007128,-0.046547,0.034728,-0.004479,0.018098,-0.029498,-0.065865,0.045312,-0.018194,-0.061597,0.064271,-0.048903,0.038856,0.007045,-0.005002,0.013860,-0.109942,-0.096788,0.018129,-0.053705,0.027633,-0.021531,-0.039802,-0.004359,0.037747,0.035086,-0.023634,-0.014044,-0.162722,0.064929,-0.006642,0.035699,-0.052351,0.013086,0.100657,0.016730,-0.029796,-0.024622,0.039108,0.035787,0.001054,-0.002425,-0.013661,0.035600,0.043943,0.070695,-0.050482,-0.006857,-0.002733,-0.009277,0.024405,-0.036117,-0.033596,-0.088324,-0.032134,-0.061456,0.039994,0.040457,-0.067776,0.126007,-0.018056,0.085125,0.006890,0.062917,-0.096102,-0.003920,-0.035148,-0.087448,0.053557,-0.054413,0.072286,0.024493,-0.004134,0.024648,-0.113359,-0.045997,-0.058141,0.006615,0.041480,0.010188,0.003105,-0.024862,-0.027291,0.037709,-0.000000,-0.004257,-0.001037,0.065864,-0.003383,-0.064836,0.082702,0.024234,0.036985,0.008986,-0.051006,-0.049273,0.019157,0.076478,0.041799,0.053942,0.024952,0.003892,-0.006926,-0.069929,-0.000864,0.054991,0.033922,-0.019125,0.024989,-0.001091,0.002412,-0.023136,-0.013613,-0.031726,-0.052223,-0.015477,0.019911,-0.079850,-0.000562,0.018041,0.133840,-0.065444,-0.028242,-0.040834,0.004444,-0.040477,0.017745,-0.033041,0.027864,0.044351,0.043377,-0.146512,-0.011118,-0.066448,0.066306,0.013014,0.074539,0.014857,0.078592,0.058346,0.034171,-0.091907,-0.006602,-0.079639,-0.056139,0.026144,0.108115,0.013940,-0.013710
0.009543,0.078769,0.066055,0.028853,0.057033,0.040081,-0.001855,-0.036109,-0.085276,-0.068582,-0.016210,0.124686,0.059684,-0.023609,0.073716,0.022814,0.027537,-0.014794,0.063906,0.035552,0.024732,0.034339,0.138856,0.011596,0.048410,-0.000530,-0.017543,-0.013098,0.071117,0.067848,0.024928,-0.031596,0.045486,-0.029514,-0.038072,0.001519,0.002011,0.017162,-0.002381,-0.024676,-0.025049,-0.042763,0.053270,0.042367,-0.034209,-0.045897,-0.021872,-0.047235,-0.014592,-0.048610,0.037996,-0.048367,0.011949,-0.061157,0.034464,0.071943,0.042180,0.006206,0.072801,-0.001634,-0.056702,-0.064250,-0.021339,0.012998,-0.060888,-0.030253,-0.057381,0.049862,-0.044137,0.096762,-0.040018,0.004743,0.053120,-0.005673,0.017768,-0.005592,0.008043,0.044543,0.002443,-0.033131,0.014552,-0.052632,-0.014169,-0.005288,-0.041811,-0.063948,-0.002834,-0.131494,0.004261,0.053090,-0.002541,-0.000526,-0.036777,0.000877,0.047154,-0.049258,0.003598,-0.097164,-0.032445,0.043621,-0.056561,0.043185,-0.054771,0.004386,-0.025278,-0.054371,0.037471,-0.009270,-0.021708,-0.047469,-0.019374,0.038979,0.002878,0.090002,-0.026101,0.103499,-0.035844,0.061949,0.004344,0.042699,0.068441,-0.019298,-0.015361,-0.035938,0.092975,-0.046599,0.029504,-0.000000,0.030295,0.055294,0.090535,0.092763,0.046713,-0.000275,-0.015919,-0.002447,-0.042383,-0.017198,-0.080425,0.039596,-0.004942,-0.032759,-0.142074,-0.035075,-0.105469,0.061497,-0.059363,-0.026078,0.010518,0.001354,-0.015412,-0.018322,0.013508,0.029304,0.111869,-0.052153,0.045970,0.017632,0.001829,-0.017593,-0.067916,-0.046373,-0.013068,-0.052039,-0.033907,-0.145054,-0.044691,0.029368,0.039418,-0.015132,0.024580,-0.008737,0.027405,0.025592,0.006561,-0.046645,-0.114494,-0.009937,0.056074,0.028454,0.045655,0.009002,-0.004864,0.003411,-0.043474,0.036864,0.035883,-0.090024,-0.024818,-0.006734,0.007983,-0.050593,-0.085023,0.022456,0.033293,0.066010,-0.142204,0.042053,-0.046275,0.069350,0.062508,-0.026311,-0.079970,0.005318,0.013366,-0.065248,0.059721,-0.054026,0.060626,-0.055733,0.027126,-0.050012,0.028783,0.025709,0.054756,-0.040995,-0.063129,-0.033317,0.032448,-0.013990,-0.036680,-0.042848,-0.067598,0.000000,-0.025779,-0.017351,0.063840,0.019212,0.026044,-0.001590,-0.042909,-0.040330,-0.008649,0.020220,0.069584,0.022274,-0.020017,0.013188,-0.063590,0.038852,-0.039895,0.050875,0.002377,-0.000600,0.067118,0.079987,-0.011701,0.026204,-0.038859,0.071772,-0.015701,0.077036,-0.097639,-0.010667,-0.018155,0.016363,-0.123279,-0.000926,-0.022705,0.006042,0.072976,0.013589,-0.084894,0.033131,0.012166,0.018089,-0.028293,0.073487,0.042988,-0.006224,0.125434,0.001261,-0.074762,0.064942,-0.128927,0.029152,-0.067153,-0.040884,-0.042350,-0.026907,-0.023322,-0.046650,0.016737,-0.079530,-0.206184,0.025245,-0.009175,0.020683,0.070039,-0.045930,-0.003240,0.004272,-0.003867,0.008787,-0.108923,0.032399,-0.052332,0.082905,0.005217,-0.065941,0.046946,-0.073737,-0.011188,-0.013463,0.036868,-0.014383,-0.021209,-0.026537,0.076429,0.059881,-0.014514,-0.082444,0.027457,0.044803,-0.016525,-0.064198,-0.000015,-0.044053,0.003221,-0.000000,0.039343,0.058580,-0.021838,0.068808,0.064627,0.025292,0.083073,0.003686,-0.054530,0.073832,0.096588,0.103291,0.036962,0.092805,0.030390,-0.011684,0.033559,-0.005544,-0.074174,0.017864,0.035768,0.000501,-0.003549,0.093645,0.039822,0.037864,-0.087976,0.064971,-0.006012,0.026059,0.043071,-0.120097,-0.059733,0.038107,-0.003856,0.089268,-0.018566,-0.035539,0.093860,-0.032500,0.003517,0.047876,-0.037968,0.036635,0.015966,0.015468,0.009439,0.051682,-0.027035,-0.000402,0.056074,0.025256,-0.047763,0.043024,0.104520,0.008436,-0.042297,-0.043979,-0.036260,0.057839,0.047486,0.000102,0.004225,-0.027588
0.032408,0.078903,-0.026574,0.055996,-0.038844,-0.082340,-0.059594,0.006185,-0.047314,0.003747,0.071950,0.126538,0.031704,0.033550,0.024403,0.051135,-0.010937,-0.059357,-0.021344,0.023188,-0.015341,0.061389,-0.016747,0.053520,-0.021633,0.015321,-0.028826,0.061183,0.057263,-0.047181,-0.007852,0.105520,-0.068030,0.002692,0.035038,-0.028298,-0.016197,0.014483,0.021687,-0.044766,0.037265,0.013199,0.075708,0.017517,-0.043322,-0.003115,0.003743,-0.091882,0.074966,-0.012674,0.000249,0.019645,-0.000698,-0.051275,-0.017138,0.005330,-0.025512,0.055105,-0.023805,-0.084344,-0.033721,0.021567,-0.033501,0.007228,0.086370,-0.031617,-0.063995,-0.101405,0.024965,-0.034094,-0.036231,-0.011109,0.020984,-0.011954,0.015982,0.076985,0.046800,-0.058532,0.083207,-0.013513,0.020907,-0.021325,-0.105849,-0.008376,0.078106,-0.026221,0.041266,-0.063524,0.019899,-0.010545,0.025086,-0.017913,0.058235,0.051635,-0.021288,-0.032732,0.014004,-0.035285,-0.010430,0.040892,0.025687,0.011415,-0.067260,-0.051162,-0.029483,0.037620,0.090217,-0.059372,0.016210,-0.070146,-0.014203,0.076315,0.123328,0.054061,-0.039563,-0.012207,-0.078828,0.066810,-0.038632,-0.031637,-0.035096,-0.040256,0.076852,0.023403,-0.048202,0.039433,0.110386,-0.000000,0.026040,-0.024507,0.014757,0.039188,0.054444,-0.021097,-0.094022,0.006549,-0.012620,0.026430,0.026993,-0.016052,-0.024281,-0.011254,-0.000523,-0.045236,-0.024938,0.004122,-0.046800,0.030502,-0.005517,-0.151241,-0.047532,-0.108246,0.076197,0.103700,-0.007783,0.037191,-0.011395,0.025750,-0.021356,0.115043,-0.038094,0.043212,-0.011705,0.034096,0.007857,0.033786,-0.060089,0.026364,-0.052934,0.030784,0.022399,-0.019631,0.065484,-0.089941,-0.105474,0.027244,0.019289,0.029394,-0.082392,0.043255,-0.047640,0.017958,-0.037333,0.014093,0.080279,-0.001363,0.000228,0.054788,-0.062644,0.035945,-0.102214,-0.043298,0.032413,0.072170,0.031231,-0.047635,-0.021835,-0.000040,-0.011826,-0.002638,-0.047649,-0.066799,-0.008958,-0.046542,0.019872,0.064990,0.065876,-0.065163,0.063855,-0.011449,-0.037403,-0.009125,0.024359,-0.007457,-0.022185,-0.036444,-0.087768,-0.015491,0.019372,0.020379,0.102434,-0.036932,0.035849,0.000000,-0.065465,0.062165,-0.029472,0.034458,0.041533,0.010383,0.007610,-0.066775,-0.071065,0.053910,0.078171,0.001521,-0.021893,0.024729,0.032438,0.016761,-0.022265,-0.046744,0.085286,-0.006753,0.078901,0.076452,-0.061163,0.085985,0.028553,0.034510,-0.056572,0.052518,-0.063820,-0.025084,0.036290,-0.000098,-0.076960,-0.012455,0.023839,0.036475,0.042422,-0.009511,-0.090750,-0.014194,-0.002412,-0.010164,-0.100685,0.065174,-0.035351,-0.040673,0.097459,-0.081979,-0.000173,0.033665,-0.062463,-0.072762,-0.108435,0.040606,0.009574,0.035058,0.058194,0.000344,-0.023407,-0.030680,-0.030859,0.047613,-0.074815,-0.011777,-0.003234,-0.015786,0.106069,0.076150,0.040808,0.034028,0.021487,0.046296,0.096054,0.009024,0.014354,0.023275,-0.049561,-0.086431,-0.028667,0.057007,-0.054008,-0.095882,-0.027452,-0.002596,0.053926,-0.056904,0.010075,-0.089910,0.018740,0.083162,0.025452,-0.000048,-0.006525,-0.002671,0.000675,-0.000000,-0.025649,0.045592,0.011570,0.080175,-0.050264,-0.036069,0.087016,0.030773,-0.086332,-0.122833,-0.047435,-0.016512,-0.018772,0.064659,0.117192,-0.086242,-0.071409,0.058553,-0.054400,-0.026208,-0.040971,0.059304,0.033028,-0.037086,-0.083845,0.079686,-0.030720,0.000459,-0.026469,-0.015684,0.003177,0.014818,0.007343,0.056795,-0.002746,0.050393,0.023663,0.055265,0.046886,-0.004063,-0.046258,0.149826,-0.057079,0.078594,0.018532,0.084905,-0.063305,-0.024746,-0.014555,-0.091839,0.096432,0.035613,-0.033687,0.015222,0.051951,0.000959,-0.020469,-0.044202,-0.016391,-0.054974,-0.026782,-0.047951,-0.060101,0.002429
0.071447,-0.032824,-0.021523,-0.012896,-0.051957,-0.056445,-0.005776,0.023669,-0.025316,0.001672,-0.031206,0.098153,0.003569,0.049563,0.029612,0.040805,-0.010968,-0.056525,-0.044807,-0.023717,-0.026835,0.084021,0.018798,0.023261,-0.033808,0.014548,-0.051203,0.005882,0.083011,0.032952,0.003054,0.137535,-0.010938,0.015538,-0.018975,0.015847,-0.034297,0.034182,-0.019073,-0.009324,0.007747,-0.063911,0.022976,0.028906,-0.025031,-0.063723,0.003495,-0.058076,0.093883,0.038389,-0.006536,-0.047341,0.085026,-0.075819,0.062588,0.005033,-0.020719,0.061537,-0.024994,-0.041464,-0.084515,0.035561,-0.024845,0.086627,0.074504,0.029839,-0.069037,-0.051823,-0.015042,0.038084,-0.043264,-0.018040,-0.006769,0.034912,0.001427,0.059967,0.051418,0.000756,0.099008,-0.060816,0.073318,-0.029910,-0.093780,0.004483,0.101717,-0.025503,-0.034073,-0.114360,0.003535,-0.006249,-0.014844,-0.078972,0.052875,0.040442,-0.042875,-0.055115,-0.057342,0.017065,-0.008139,0.049760,0.009763,-0.044610,-0.006539,-0.060742,-0.046065,-0.051265,0.135611,-0.064582,0.037008,-0.121420,-0.045533,0.040104,0.052361,0.026557,-0.036890,0.014122,-0.058994,0.066018,0.060725,0.034450,-0.024928,-0.017996,-0.013661,0.002563,-0.011476,-0.005844,-0.027084,-0.000000,-0.020681,0.029281,0.039170,0.104056,0.050234,-0.040710,-0.045923,0.010485,-0.020476,-0.024699,0.044135,0.073663,-0.014252,0.041326,0.016928,-0.040908,-0.071500,0.000696,-0.012061,-0.008681,0.034093,-0.043300,-0.056568,-0.017415,0.055980,0.126050,0.012558,0.004824,0.056964,0.050556,0.053024,0.090230,-0.067639,-0.009584,0.022764,0.013131,0.034068,0.012253,-0.049733,0.034155,-0.030557,0.014357,0.017807,-0.043105,0.021035,-0.005672,-0.087241,0.005847,-0.013194,0.048268,-0.074318,0.003203,-0.004079,-0.008990,0.014064,0.016087,-0.004515,0.012908,0.007238,0.017911,-0.112118,0.011413,-0.093126,0.055824,0.046977,0.054135,0.074347,-0.043402,-0.020335,0.039324,-0.076174,0.005087,-0.096352,-0.073217,-0.027439,-0.070424,0.018864,0.058402,0.000951,-0.048050,0.024263,0.040065,-0.025272,-0.003455,0.028875,0.018950,-0.004537,-0.097041,-0.089431,-0.002202,-0.024927,-0.026457,0.041913,-0.000408,-0.024222,0.000000,-0.025576,0.019816,-0.007732,0.060073,0.068434,-0.043809,0.050540,-0.055653,-0.044441,0.068933,0.079013,-0.002857,0.051132,-0.016154,0.028356,-0.007169,0.010163,0.038503,0.098380,-0.024007,0.124991,-0.008393,-0.042514,0.070269,-0.002199,0.016011,-0.032566,-0.007014,-0.073879,-0.000338,-0.062986,-0.024448,-0.080132,0.010669,0.009690,0.073072,0.024334,-0.016881,-0.093826,-0.003965,0.014962,-0.072287,-0.054071,0.073375,0.001509,-0.024854,0.027524,-0.037319,-0.055940,-0.024186,-0.101480,-0.139969,-0.088172,-0.036528,-0.003528,0.046695,0.071475,-0.064582,0.014181,-0.003892,-0.036308,0.002206,-0.048358,-0.005618,-0.017950,-0.046048,0.031084,0.064482,-0.051289,0.033717,0.030446,0.017181,0.000585,0.067494,-0.110377,-0.013456,-0.020379,-0.053936,-0.070462,0.072106,-0.076730,-0.089847,0.003415,0.091556,0.007318,0.025711,0.064255,-0.001674,-0.014086,0.001198,-0.017431,-0.014983,0.031539,0.005549,-0.073255,-0.000000,-0.039720,0.054186,0.024353,0.036886,0.024629,-0.011090,0.036308,0.069594,-0.058512,-0.057723,-0.025891,0.029409,-0.004355,0.078088,0.144295,0.002933,-0.046441,0.095903,-0.074643,0.052603,-0.045109,0.060721,0.052774,-0.046644,-0.021068,0.049905,-0.057055,-0.044028,0.009788,0.002290,-0.011866,0.028701,-0.069838,0.044963,-0.027578,0.055655,0.005970,0.013365,0.064424,-0.023629,-0.105742,0.165952,-0.005881,0.087803,0.089634,0.063243,-0.082544,0.036502,-0.005642,-0.070185,0.064751,0.060168,-0.036628,0.042540,0.095718,-0.003597,-0.033302,-0.073787,-0.043303,-0.082580,0.021650,-0.008269,-0.087373,0.044191
0.076512,0.012349,-0.021718,0.017358,-0.088413,0.006311,-0.031164,0.007496,-0.073143,0.037148,-0.004309,0.035557,0.013155,-0.036300,-0.005176,0.045986,-0.081565,-0.023248,-0.076593,-0.001324,-0.060884,0.032169,0.011789,0.043604,0.008505,0.028015,-0.019069,0.018524,0.060992,-0.020064,-0.002514,0.123829,0.016603,0.016500,-0.012556,-0.012072,0.009141,0.032234,0.018029,-0.036708,0.006454,0.026248,0.051243,0.021068,-0.042158,-0.006569,-0.046623,-0.022590,0.106487,0.020133,-0.047204,-0.007520,0.025784,-0.043669,0.072661,-0.013109,-0.074817,-0.040773,-0.013267,-0.018976,-0.121730,0.035051,0.008934,0.025929,0.035234,-0.032013,-0.128065,-0.056777,-0.027497,0.038129,-0.068725,-0.012795,0.033272,0.017944,-0.017586,0.036193,0.033569,-0.023844,0.075311,-0.072025,0.003346,-0.070640,-0.087712,-0.009575,0.039019,-0.088935,0.023802,-0.031360,-0.044193,0.001036,-0.004609,0.015945,0.095001,0.026492,0.002266,-0.005091,-0.030075,0.036220,-0.008796,0.066098,0.060539,-0.008524,0.032452,-0.014904,-0.015326,0.043535,0.097742,-0.053241,0.022676,-0.135540,-0.014002,0.064676,0.095150,0.066360,0.029152,-0.010922,-0.067220,0.053119,0.019441,-0.040623,-0.005788,-0.007742,0.103670,0.018671,-0.019590,-0.011432,0.092975,-0.000000,0.021821,0.003930,0.020719,0.121476,0.072797,0.008001,-0.081628,-0.018715,-0.020099,0.026069,-0.009556,-0.010587,0.009658,-0.008960,0.017603,0.023945,-0.001709,0.005182,-0.000692,-0.009641,-0.021020,-0.024555,-0.049477,-0.055164,0.062472,0.079368,0.019297,0.021876,0.003881,0.032257,-0.026013,0.087754,-0.001476,0.051263,0.018544,-0.019197,0.072557,0.022228,-0.047586,0.026313,-0.031643,0.004222,-0.009788,0.019014,-0.033370,-0.058245,-0.108429,0.042851,0.011313,0.074364,-0.115947,0.005058,-0.020608,-0.031418,-0.015834,0.003992,0.042986,0.067407,-0.009578,0.066282,-0.058377,0.047371,-0.085459,0.034568,0.024017,0.034438,0.008983,-0.049707,-0.021965,0.040201,-0.062232,-0.032665,-0.043645,-0.077028,0.003483,-0.035393,0.041281,0.018910,-0.028440,0.000683,0.007077,0.032059,-0.038525,0.007830,-0.024916,-0.019342,-0.034967,-0.078996,-0.055568,0.008824,-0.014087,-0.040243,0.073132,-0.052232,-0.039779,0.000000,0.000089,0.092685,0.003448,0.023227,0.093107,-0.021724,0.035950,-0.065220,-0.069310,0.006105,0.076857,0.029801,0.043284,-0.015580,0.025277,-0.013588,0.058844,-0.006340,0.115307,-0.012433,0.115197,-0.001216,-0.119427,0.056036,0.028751,0.095898,-0.027105,-0.012189,-0.121278,-0.018916,0.010918,-0.065917,-0.029548,0.027186,0.036100,0.046784,-0.044274,0.019373,-0.095415,-0.000385,-0.023490,-0.078853,-0.007019,0.043151,-0.004068,-0.047455,0.038622,-0.056270,-0.060530,-0.000532,-0.057661,-0.076542,-0.133731,0.028661,-0.002957,-0.050275,0.048190,-0.072161,0.120853,-0.010787,-0.043985,-0.009308,-0.083458,0.021501,-0.022878,-0.011198,0.054768,0.078639,-0.075872,0.013898,-0.015257,-0.021235,0.036091,0.053666,-0.026933,0.068279,-0.085627,-0.022494,0.005587,0.100742,-0.089792,-0.054585,0.009137,0.080867,-0.031976,0.038449,0.116275,-0.014805,0.017396,0.058318,0.054024,-0.026789,0.114062,-0.094387,-0.006878,-0.000000,-0.005659,-0.012940,-0.018069,0.011240,-0.007789,-0.087699,0.018684,0.091319,-0.076113,0.024210,-0.040597,-0.027156,0.030615,-0.001312,0.127315,-0.051248,-0.075120,0.097741,-0.039700,-0.004652,-0.046199,0.050672,0.027363,-0.006795,-0.019215,0.098157,-0.011484,-0.059868,-0.006108,0.024626,0.011451,0.034565,-0.102614,0.006716,0.039135,0.019313,-0.031255,-0.033833,0.012822,-0.014460,-0.109311,0.122047,-0.021793,0.061906,0.074484,0.058714,-0.043754,0.006271,-0.015931,-0.136973,0.072300,0.047417,-0.002141,0.064325,-0.024155,-0.001096,-0.033202,-0.032156,-0.016293,-0.060567,0.021741,0.044243,-0.112961,-0.019363
0.046771,-0.003098,-0.021056,-0.051171,-0.024198,0.022134,0.004525,-0.010619,-0.042900,-0.041610,0.056677,0.089919,0.102818,-0.012341,0.031150,-0.000665,-0.063975,-0.015606,0.038261,-0.042268,-0.039922,0.017911,0.049481,-0.020484,0.054264,0.038559,-0.060691,-0.031230,0.041874,-0.004907,0.008407,-0.078808,-0.012199,0.022330,0.025430,-0.000448,0.025544,0.029101,0.007148,-0.031500,0.022380,-0.008317,0.004262,-0.004253,-0.038382,-0.088318,-0.052424,0.007147,0.048996,0.014524,0.031943,-0.037748,-0.030003,-0.035032,0.051764,0.002097,-0.083892,-0.023339,0.040863,0.008761,-0.028368,-0.000527,-0.077190,0.033357,0.047444,-0.012626,-0.055925,-0.017514,-0.080763,0.077175,-0.021861,-0.045759,0.000819,-0.024483,-0.009543,0.034547,0.003312,0.001290,-0.044489,-0.040775,-0.036712,-0.035556,-0.064227,-0.021062,0.015157,-0.018098,-0.036187,-0.095092,0.012844,-0.044860,-0.004060,-0.001887,0.034360,0.013362,0.027424,-0.040813,0.015478,-0.014101,0.101641,0.070405,-0.043188,0.005997,0.031116,-0.084373,-0.007858,-0.040744,0.008786,-0.039969,0.022985,-0.026071,-0.045780,-0.038972,0.031989,0.082736,0.050931,0.060172,-0.060850,0.121984,0.012223,0.062448,0.028383,0.021483,0.086357,-0.028428,-0.035463,-0.075035,0.036495,-0.000000,0.027881,-0.036607,-0.000950,0.146237,0.022139,0.056506,-0.070506,-0.007588,-0.013422,-0.045121,-0.033146,0.095022,-0.000908,-0.011817,0.026440,0.032481,-0.036052,0.040734,-0.013025,0.009388,0.008862,0.117613,0.047098,-0.019842,0.034971,0.011878,0.068959,0.030782,-0.024266,0.018743,0.067175,0.004436,-0.080362,0.035564,-0.015917,0.041193,-0.016213,-0.113200,-0.000501,0.060434,-0.045643,-0.029783,0.006868,-0.031261,-0.043578,0.025695,-0.117979,0.026131,0.060101,0.009558,-0.017131,0.029604,0.035601,-0.028493,0.034111,-0.002453,-0.038918,0.078344,0.016516,-0.001978,-0.079970,0.033310,-0.041549,-0.075902,-0.038149,0.104742,0.062648,0.010753,0.011424,0.056095,-0.037229,0.018264,0.065102,-0.038722,-0.008335,0.006988,0.000099,-0.075209,-0.000133,0.045929,-0.007663,-0.027499,-0.060710,0.002452,0.042171,0.097244,0.070249,-0.090683,-0.057596,0.019160,-0.065182,0.041674,0.052842,-0.070353,-0.052918,0.000000,-0.076460,0.082123,0.081990,0.029127,0.072741,0.028285,-0.068544,-0.115517,-0.020475,0.080720,0.089436,0.012635,-0.074781,-0.047041,-0.084849,-0.009305,0.101317,-0.054810,0.007169,0.058119,0.077123,0.066105,-0.052667,0.083993,-0.058597,0.090463,-0.038761,-0.034720,-0.086932,0.009384,0.086245,-0.035677,-0.038923,0.030160,-0.024538,0.048691,-0.005170,0.000214,-0.009394,-0.032111,0.005893,-0.082006,-0.032023,0.091450,0.005379,0.024183,-0.019093,0.041111,-0.042512,0.024705,-0.082972,-0.013836,-0.145755,-0.053871,-0.025890,-0.049471,0.099085,-0.028636,0.013087,0.026968,-0.105990,-0.038852,0.046059,0.037475,0.062304,-0.035714,0.000671,0.004568,-0.070219,-0.016945,-0.012611,0.070469,-0.019486,-0.017701,-0.041923,0.015024,-0.096397,-0.067726,0.032121,-0.052891,-0.040191,-0.023061,-0.072693,0.031524,-0.006314,0.116087,0.084509,-0.089009,0.079080,0.039451,0.061957,-0.043053,0.141061,-0.002984,-0.004760,-0.000000,0.017487,0.043805,-0.018962,0.017648,-0.034834,0.047644,0.013480,0.099322,-0.023887,0.094348,-0.033240,0.063719,-0.048497,0.083042,0.052369,-0.064562,-0.019131,0.006417,-0.066191,0.009133,0.032491,0.025073,0.038735,-0.067721,-0.061141,0.054585,-0.081949,-0.000912,-0.009171,0.058758,0.063485,-0.151192,-0.053550,-0.019991,0.023194,0.014219,-0.068968,-0.015137,0.068230,-0.062790,-0.014591,0.061275,-0.018686,0.091141,0.041655,0.008663,-0.049697,-0.011288,-0.019433,-0.049146,-0.013585,0.073519,0.006233,0.012865,0.089107,-0.063018,-0.000305,-0.072817,-0.022770,0.009896,0.067679,-0.035340,0.059015,0.032871
0.084820,0.055610,-0.045854,0.003144,-0.059573,-0.041791,-0.134026,0.008344,-0.087909,0.041694,0.034978,0.067835,-0.041739,0.039173,0.003186,0.069227,-0.053542,0.036827,-0.099852,0.059616,0.007798,-0.008995,0.000871,0.045431,-0.029998,0.057416,-0.050789,0.036146,0.004866,-0.112613,0.000075,0.165639,-0.022640,0.001137,0.026487,-0.083862,-0.033534,0.028947,0.041345,-0.011189,0.063759,-0.006332,0.044960,0.004150,0.034491,-0.009016,-0.014993,-0.074835,0.121100,-0.008462,-0.030894,-0.001107,-0.050344,0.036678,-0.011705,0.023191,0.005296,0.001090,-0.012494,-0.033987,-0.014997,0.074081,-0.034426,0.036795,-0.011705,-0.037676,-0.032595,-0.090943,0.021741,-0.002059,-0.004522,-0.024861,0.001939,-0.034679,0.073995,0.031622,-0.028554,-0.052742,0.111219,-0.000483,-0.004954,-0.018342,-0.077275,-0.008349,0.060916,-0.042793,0.019347,-0.043827,0.037426,0.021285,-0.034441,-0.005446,-0.011589,0.026111,-0.009665,-0.024116,0.026770,-0.062701,-0.060999,-0.009976,0.043358,-0.039151,0.006520,0.055495,-0.086636,0.002754,0.122507,0.035909,-0.039453,-0.060867,0.020479,0.075907,0.061456,0.005962,0.071639,0.057735,-0.040876,0.036310,-0.047843,-0.020682,-0.000798,-0.003092,0.024418,0.026868,-0.053743,0.037517,0.017005,-0.000000,0.037993,0.075247,-0.030690,0.075319,0.097890,0.015902,-0.042943,0.055361,-0.042040,0.084221,0.020086,-0.004766,-0.007534,-0.030398,0.026782,-0.105390,0.001326,0.021678,-0.067725,0.013682,0.037961,-0.125763,-0.108785,-0.092126,0.070434,0.084188,-0.000166,0.059368,-0.043436,0.046334,-0.042777,0.052371,-0.078966,-0.040770,-0.012837,-0.066545,0.025857,0.025199,-0.044420,-0.052915,-0.041898,0.052016,-0.011431,0.016710,0.011845,0.021211,0.088118,0.006184,0.069302,0.044938,0.006008,-0.000371,-0.032996,-0.010449,-0.029289,-0.032409,0.070947,-0.024035,-0.003124,0.022430,0.047627,0.007059,-0.061630,0.050608,0.103556,0.079069,-0.081209,-0.043277,-0.040750,0.026086,0.016159,0.016440,0.010590,-0.056658,-0.047118,-0.090988,0.020012,0.028992,0.053967,-0.020451,-0.001419,0.028315,-0.058371,-0.044900,-0.028747,-0.057078,-0.030812,-0.024379,-0.094553,-0.010081,0.031374,-0.066524,0.093218,-0.034965,0.009809,0.000000,-0.022126,0.012772,-0.028333,0.026865,0.041052,0.014934,0.044584,0.063161,-0.007620,-0.003108,-0.000403,0.019005,-0.060856,-0.015941,0.024465,-0.048245,-0.088754,-0.008920,0.048886,0.011614,0.077800,0.095207,-0.039609,0.117981,-0.009623,-0.001322,-0.055584,0.014936,-0.014725,-0.005375,0.005766,-0.076213,-0.002048,0.014182,-0.055721,0.027336,0.033043,-0.037963,-0.046591,-0.014907,0.029207,-0.037159,-0.115859,-0.025425,0.008006,-0.052948,0.140342,-0.012078,0.008306,0.042955,-0.008587,-0.073380,-0.047015,0.063532,-0.019575,0.012043,0.014656,-0.079258,-0.049695,-0.063511,0.039752,0.034547,-0.006877,-0.026733,0.019860,-0.014385,0.064013,0.080557,-0.042396,0.085909,-0.069100,-0.038055,0.077611,0.058630,0.023731,-0.124710,0.033145,-0.058312,0.072468,0.007598,-0.015013,-0.106439,0.028647,0.018309,0.053384,-0.043011,-0.032748,0.007915,0.020738,0.141092,-0.022439,-0.015509,0.057015,0.023501,-0.006826,-0.000000,-0.045301,0.039751,-0.026394,0.081089,-0.037701,-0.034211,0.028242,0.050263,0.015434,-0.115572,0.019232,-0.040053,0.003421,0.112651,0.082827,-0.093478,-0.035353,0.083013,-0.047160,-0.015131,-0.042673,-0.017667,0.049108,-0.016577,-0.025262,0.033458,-0.087667,0.055455,-0.022817,0.001952,-0.013582,0.023543,-0.023451,0.100931,-0.000276,0.022241,0.016197,0.081018,0.022879,0.038091,-0.021868,0.062171,-0.119425,0.066721,0.053213,0.057985,-0.059429,-0.074031,-0.011892,-0.035496,0.083034,0.074008,0.006230,0.035473,0.005118,0.023241,-0.045261,0.032130,-0.043295,-0.035568,0.016654,-0.066883,-0.068154,-0.017031
-0.017333,-0.041044,0.043668,0.043866,0.016796,-0.023129,-0.054630,-0.118002,-0.005896,-0.034204,0.017231,0.119136,0.021047,-0.015094,0.014189,0.041362,-0.072007,0.012144,0.055999,0.004342,0.014656,0.063971,0.107993,0.006316,-0.011522,0.034985,0.006225,0.025980,0.066159,-0.033006,0.041041,-0.024601,-0.033148,0.004632,0.000746,0.022908,-0.022938,-0.046155,0.077017,-0.067984,0.002949,-0.056433,-0.059619,0.021121,-0.003170,0.061446,-0.078235,-0.036931,0.003075,0.017346,-0.020008,0.012726,0.005802,0.011946,0.029493,0.052660,-0.000134,0.012244,0.018130,0.016031,-0.051007,-0.048102,-0.098710,0.021459,-0.052575,0.005111,-0.000064,0.137076,-0.029659,0.016248,-0.127935,0.042217,0.056697,0.072570,0.005268,0.042182,0.013462,0.033978,0.021528,-0.019628,0.046365,0.007904,-0.009301,-0.030192,-0.056261,-0.049208,0.020907,-0.059725,0.037019,-0.019407,-0.041942,-0.094514,0.019280,0.010014,0.034196,0.016015,-0.044805,-0.053019,-0.019497,0.043321,-0.068373,-0.003258,-0.091776,-0.030107,0.000866,-0.012643,0.020988,0.006121,0.040846,-0.123807,0.007277,0.008692,-0.051394,0.048188,0.025001,0.046291,-0.051598,0.023926,0.003973,0.021626,-0.000186,0.057599,-0.057032,0.016954,0.065140,-0.104072,-0.052136,-0.000000,0.008727,0.036860,0.072564,0.056838,-0.030698,0.074951,0.031869,0.057421,0.004992,-0.030499,-0.004895,0.026236,-0.025622,0.039907,-0.043547,-0.007304,-0.031054,0.069591,-0.001768,-0.050081,0.005010,-0.047744,0.053276,-0.029111,0.025258,-0.008305,0.077905,0.015174,0.014461,0.019478,-0.006848,-0.004501,-0.033585,0.029165,-0.030635,0.002942,0.031315,-0.049533,-0.049114,-0.004215,0.053161,0.033806,-0.055318,-0.019223,0.022476,-0.027910,0.130184,-0.039237,-0.092800,-0.013330,0.021282,-0.008533,0.022661,-0.039481,-0.027747,0.068026,-0.024052,-0.035761,-0.019534,-0.040861,-0.039899,0.024976,0.007434,0.066869,-0.014661,0.118359,-0.021101,-0.000375,-0.150389,0.025032,0.009632,0.039697,0.014318,0.083136,-0.064754,-0.002421,0.079267,-0.027396,0.103463,0.003908,0.013291,-0.030183,-0.001568,-0.061027,0.052315,0.039759,0.088528,-0.094670,-0.004301,-0.011745,0.033510,-0.059200,-0.004654,0.060972,-0.019327,0.000000,-0.044591,0.007699,0.023664,0.038815,-0.043812,-0.005190,0.001339,0.059073,-0.050730,-0.026307,0.068257,-0.029913,-0.020092,0.060978,-0.013039,-0.030683,0.044405,-0.004959,-0.003975,0.045117,-0.007186,0.033871,-0.106775,0.084924,-0.045719,0.092502,0.009967,0.066995,-0.051341,0.012652,-0.032430,-0.046577,-0.064801,-0.011117,0.013833,-0.020821,0.055797,-0.011080,-0.025847,0.043765,0.066913,-0.054511,-0.088280,0.022464,0.022852,-0.058955,0.157077,0.012879,-0.018032,-0.025723,0.021327,-0.018982,-0.082039,-0.120169,-0.057812,-0.009746,0.078362,-0.013256,0.032387,-0.057829,-0.064258,0.007050,-0.013385,0.029708,0.130221,-0.019400,-0.023432,0.077352,0.047964,0.088358,0.051461,0.030843,-0.073744,-0.025715,-0.046846,-0.022408,0.000572,-0.026210,0.002629,0.024974,0.067071,-0.036133,0.015532,0.015447,0.089822,0.035592,-0.007054,-0.013832,0.072160,-0.029687,-0.078831,-0.090268,-0.032308,-0.143806,-0.100539,-0.000000,-0.057079,-0.050749,0.028110,0.038738,0.128899,0.093472,0.019591,0.045639,-0.060465,0.013364,0.005710,0.062960,0.065190,0.054643,0.014052,0.130080,0.094785,-0.019298,-0.035882,0.079994,0.011896,0.040724,0.045183,0.073480,-0.044402,-0.024683,-0.139890,0.067964,-0.025342,0.009623,0.011342,-0.109464,-0.039616,-0.047462,0.004721,0.013309,-0.037155,-0.061508,0.044521,-0.042790,-0.056795,0.024435,-0.006398,0.089772,-0.056237,-0.045734,-0.051982,0.059127,-0.006681,-0.027222,0.028856,0.041229,-0.062427,0.042787,0.161726,0.006698,-0.020234,-0.042527,-0.025873,0.029193,0.036158,-0.014061,0.071394,0.028143
0.064989,-0.006292,-0.029435,-0.059988,-0.061832,-0.013278,-0.048073,0.012747,-0.048161,-0.040283,0.046812,0.105836,0.105828,-0.000242,0.032452,-0.022351,-0.044228,-0.042057,0.018376,-0.007969,-0.050068,-0.016449,0.030987,-0.032338,0.048619,0.039164,-0.024779,-0.032578,0.064329,0.020550,0.010831,-0.020812,0.001236,0.018575,0.053742,0.047020,0.020683,0.030935,-0.014936,-0.054983,0.013577,-0.007322,-0.007977,-0.056100,-0.031896,-0.074714,-0.064372,0.009746,-0.020243,-0.000700,-0.021039,-0.044920,0.006163,-0.067186,0.046455,0.008274,-0.091523,-0.061830,0.014351,-0.003265,-0.031448,0.051251,-0.049385,0.010095,0.134759,-0.031495,-0.063756,-0.071936,-0.065831,0.060979,-0.012146,-0.041711,0.015217,-0.017706,-0.016531,0.017370,-0.005600,0.025201,-0.041282,-0.020444,-0.022938,-0.061764,-0.049063,0.001323,0.024208,-0.031293,-0.024012,-0.085269,-0.006136,-0.054264,0.036217,0.054184,0.058722,0.034795,0.050456,-0.066476,0.025424,0.010237,0.064543,0.043736,-0.054153,0.017457,-0.027378,-0.114062,0.009231,-0.047949,0.011533,-0.002659,0.020646,-0.028587,-0.053899,-0.021514,0.067291,0.054724,0.056225,0.014537,-0.039494,0.096961,0.012436,0.061924,0.048539,0.015138,0.092734,-0.010753,-0.045564,-0.087806,0.068688,-0.000000,-0.017128,-0.077249,-0.003851,0.121146,-0.003465,0.060442,-0.086036,-0.009427,-0.012016,-0.043232,-0.024727,0.073318,0.008716,-0.074040,0.052170,0.050549,-0.011337,-0.005827,-0.014192,0.009884,0.025079,0.106666,0.041241,-0.054938,0.020717,0.037632,0.049141,0.047538,0.017817,0.011548,0.038785,-0.023066,-0.074927,0.050574,0.021500,0.061652,0.014305,-0.120550,0.034134,0.063193,-0.075512,-0.009350,-0.020282,-0.027453,-0.034584,0.061806,-0.092908,0.011179,0.014908,-0.030939,-0.034448,0.027047,0.009667,-0.020962,0.041344,0.022387,-0.033169,0.102921,0.003067,0.013968,-0.046426,0.038552,-0.052148,-0.013955,-0.037760,0.116888,0.086770,0.008067,0.040455,0.027382,-0.020381,0.011517,0.020818,-0.080873,0.022017,0.009698,-0.036792,-0.030109,0.027231,0.030828,0.009216,-0.002297,-0.020200,0.003147,0.064643,0.087725,0.090872,-0.044383,-0.020870,0.048697,-0.028490,0.040342,0.043853,-0.085387,-0.047044,0.000000,-0.070010,0.062277,0.045773,0.024795,0.071188,0.035506,-0.042359,-0.134154,-0.020688,0.094395,0.114549,0.009497,-0.050314,-0.023523,-0.064821,-0.032397,0.109196,-0.068893,-0.002165,0.048870,0.039467,0.034972,-0.060073,0.035082,-0.028463,0.069197,-0.023625,-0.014986,-0.065769,-0.014152,0.121733,-0.029738,-0.038106,0.043713,-0.013002,0.036195,-0.008760,-0.022472,0.012694,-0.040514,-0.021686,-0.098205,-0.062686,0.084733,-0.024771,0.021088,-0.008803,0.007986,-0.009614,-0.012224,-0.084621,0.034621,-0.134180,-0.087264,-0.027013,-0.028916,0.096917,-0.000515,-0.011873,0.011394,-0.080776,-0.027100,0.021914,-0.003956,0.069979,-0.008574,0.026566,0.024405,-0.019661,-0.043201,-0.053040,0.031024,-0.011458,0.036438,-0.015129,0.016753,-0.083423,-0.038381,-0.017484,-0.052385,-0.035849,-0.020786,-0.034189,-0.017668,-0.016616,0.117634,0.038515,-0.109310,0.050193,0.062724,0.061468,-0.071241,0.169845,-0.035540,0.038083,-0.000000,0.031977,0.058609,0.004599,0.029812,-0.069563,0.026998,-0.002650,0.070698,-0.050790,0.083681,-0.060371,0.040043,-0.044181,0.063785,0.050540,-0.056401,0.045504,-0.016119,-0.046678,0.013712,0.074058,0.060731,0.028078,-0.035225,-0.066553,0.058641,-0.062486,-0.039176,-0.049713,-0.005149,0.070537,-0.136058,-0.047833,0.018127,0.029801,-0.017638,-0.034304,0.016746,0.059544,-0.055078,-0.003923,0.077202,0.011198,0.132739,0.082079,0.058511,-0.033207,-0.037162,0.023921,-0.063012,0.002689,0.059415,-0.000707,0.000774,0.059611,-0.088701,-0.001793,-0.077267,-0.022092,-0.014823,0.086135,-0.053791,0.029904,0.020862
-0.093659,0.087642,-0.028976,0.019963,-0.048494,-0.010635,-0.018868,-0.094831,-0.019706,-0.013306,0.050446,0.023185,0.029043,-0.058755,0.031611,0.061163,-0.077518,0.043432,-0.077629,0.022651,-0.059276,-0.003839,-0.051508,0.008806,0.020745,-0.009859,0.064603,0.051418,0.037581,-0.086799,-0.006203,0.023480,0.025279,0.013749,0.055280,0.120972,0.008754,-0.000844,-0.085269,-0.008926,-0.009659,-0.037665,-0.026561,0.018043,0.004213,0.026278,-0.106790,-0.008514,-0.000746,-0.090029,-0.019432,0.039516,-0.012903,0.090532,0.063071,0.013426,-0.062577,-0.070986,0.014577,0.011222,0.003789,0.027057,-0.085310,0.099674,0.064408,0.067304,-0.046806,0.008368,0.020680,0.103903,-0.036059,-0.042449,0.053083,0.025797,-0.033991,0.033926,-0.031985,0.071258,0.008065,-0.017445,0.024057,-0.033890,-0.045627,0.016763,0.007712,0.051858,-0.082441,-0.020486,0.057178,0.036511,-0.030100,0.014366,0.132605,0.029211,-0.050810,-0.051716,0.027042,-0.002987,-0.094711,0.093945,0.034588,0.052634,-0.010368,0.028114,-0.062624,-0.060719,-0.002083,0.001742,0.004628,-0.045405,-0.053675,-0.043544,0.004069,-0.048089,-0.001049,-0.050032,-0.014662,-0.052574,0.052520,0.072780,0.008115,-0.055493,-0.115469,0.093029,-0.013827,-0.028888,0.027379,-0.000000,-0.006887,-0.042057,0.017062,-0.083515,-0.026997,0.028577,-0.091729,-0.050138,-0.042734,-0.032170,0.059998,0.033690,-0.023199,0.017477,0.002632,-0.037188,0.048830,0.049722,-0.008069,-0.029936,0.033160,0.015735,-0.053188,-0.020381,-0.026896,0.001228,-0.030262,-0.063229,0.007092,0.034150,-0.007069,-0.029396,-0.022747,0.030652,0.004755,0.016421,-0.059005,0.033482,-0.000112,0.010082,-0.039487,-0.044656,-0.078064,-0.019314,0.017159,-0.002496,0.003033,-0.002598,-0.010957,-0.064033,0.042057,0.077766,-0.037919,0.001866,0.036769,-0.029316,0.062969,0.040160,-0.004900,-0.013802,-0.066301,0.021004,0.036982,0.000017,-0.026662,-0.000581,-0.054502,0.037926,0.050606,0.012805,-0.081580,0.083918,-0.008847,0.059059,-0.132828,0.020431,-0.064436,0.012847,0.064829,0.100012,0.054442,0.072018,-0.048281,-0.039577,0.046057,-0.061269,0.006337,-0.091932,0.026036,-0.038025,-0.037748,0.051624,-0.010184,-0.071046,-0.015345,0.000000,0.030565,-0.026324,-0.060375,0.045327,-0.005174,0.090208,0.088486,0.089452,0.002524,0.104777,0.069122,0.008118,0.006498,-0.062379,0.157696,0.083172,-0.001581,0.122126,-0.025932,-0.040145,-0.036882,-0.040837,-0.007003,0.055216,-0.032486,0.006180,0.063797,0.154523,-0.079292,-0.021310,0.119317,-0.025497,-0.089616,0.012664,-0.002427,-0.095202,0.003971,0.017959,0.007713,0.008338,0.038382,0.056174,-0.020000,0.110848,-0.040097,-0.006864,-0.055487,-0.007748,0.058165,-0.104802,0.039572,-0.006144,0.021782,0.027953,-0.011799,0.071598,-0.007917,0.072858,0.059882,0.004025,-0.011431,-0.029252,-0.002651,-0.001544,0.069872,-0.086729,-0.000914,0.008476,-0.068229,-0.039293,0.066824,-0.012351,-0.106695,-0.083171,-0.038247,0.005222,0.027976,0.000860,-0.061031,-0.074246,-0.043262,0.001528,0.000128,-0.002133,0.009499,0.005236,-0.032926,-0.026512,-0.029594,0.023536,0.005656,0.026619,-0.048978,0.068169,0.027119,-0.000000,-0.028541,-0.055796,0.009727,-0.044226,0.045604,-0.044234,-0.064235,-0.013429,-0.068153,0.025698,0.100483,-0.027887,-0.064816,0.001123,-0.018023,-0.021196,0.148704,0.027929,-0.010139,-0.056678,0.081044,0.042402,0.069658,0.044550,-0.040586,0.019006,-0.056793,0.056624,0.041185,-0.051304,0.054876,0.016009,0.028163,-0.028007,0.062824,0.046454,0.012066,0.009772,-0.035504,0.003829,0.035801,0.020772,0.027640,0.038683,-0.071877,-0.046020,0.078001,-0.128732,-0.017634,-0.114400,-0.029116,-0.004542,-0.029840,-0.068461,0.030741,-0.015947,0.010136,0.015416,-0.037993,0.036512,0.124599,-0.000460,-0.049131,0.014705
-0.006786,0.027410,0.027779,-0.030236,0.063875,0.034572,0.009255,0.017144,-0.003572,0.025676,-0.018426,0.047719,0.061646,-0.001324,-0.000673,0.003940,-0.060532,-0.023952,-0.007458,-0.018850,-0.000076,-0.029607,0.061279,0.023501,0.015510,0.033080,-0.008603,-0.046532,0.054906,0.039333,-0.065605,0.082282,0.012993,-0.041301,0.058007,0.055995,0.018154,-0.015651,0.012143,-0.043315,-0.030738,-0.092095,-0.024332,-0.057032,-0.075851,0.046047,-0.039130,-0.098659,-0.065409,-0.051723,-0.017605,0.074526,0.016586,-0.044129,-0.038288,-0.070443,0.028962,-0.090230,0.025151,-0.009767,0.063734,-0.057533,-0.048829,0.033905,0.051132,0.005277,-0.021321,0.056265,-0.072907,0.036475,-0.028962,-0.011134,0.013209,0.011597,0.010646,0.034324,0.135390,0.044907,0.087010,0.055989,0.118662,-0.002745,-0.034812,-0.093929,-0.035648,0.003586,-0.034914,-0.032040,0.011805,-0.050735,-0.077394,-0.000918,-0.034441,0.055439,-0.045220,0.035960,-0.076969,0.052005,-0.016609,-0.011074,0.027866,0.075837,-0.013195,-0.048047,-0.004504,-0.031950,0.009590,0.033100,0.054358,-0.000459,0.004957,-0.001570,-0.094424,0.039204,-0.019406,-0.012748,0.038501,-0.055071,0.048883,-0.041841,0.012456,0.039416,-0.014541,0.010385,0.013212,-0.107069,-0.042203,-0.000000,-0.001276,0.097356,0.092477,-0.048742,-0.039787,0.021011,-0.069935,0.027122,-0.019351,-0.082300,0.012406,0.027919,0.026308,0.053661,0.092282,-0.115853,-0.020988,0.016682,0.081812,-0.057414,0.007110,-0.033581,0.059197,0.014275,0.066300,-0.050986,0.002947,0.031410,-0.030659,0.005552,0.008716,0.081600,-0.107680,-0.011503,-0.038672,-0.010913,-0.071867,0.015669,-0.005254,0.084192,-0.067296,0.010612,-0.051297,0.007855,0.082282,-0.040643,0.066414,0.018507,-0.107067,-0.032270,-0.014868,0.072351,-0.050996,-0.086367,-0.000878,-0.009850,0.052496,-0.033630,0.001458,-0.030676,-0.092235,-0.071931,-0.024122,0.020009,-0.019281,0.061216,0.025376,0.005093,-0.100636,0.050652,-0.009618,-0.016637,0.007391,-0.006463,0.010574,0.039386,-0.058423,-0.002097,0.046000,0.031443,-0.118669,0.013145,0.023600,-0.098850,0.134015,-0.015761,0.066912,-0.009427,0.074418,-0.021541,-0.041021,0.017225,-0.037045,0.059108,-0.033982,0.000000,0.003917,0.064611,-0.048104,0.012395,-0.026733,-0.075135,-0.003018,-0.005925,-0.011706,0.055250,0.032092,0.081824,-0.045342,0.021569,-0.059296,-0.061066,0.031534,-0.086385,0.018253,-0.069997,-0.016864,0.080165,-0.067426,0.064271,-0.018453,0.031431,-0.089338,0.034761,0.049929,-0.033525,-0.058642,-0.033329,-0.098000,0.021194,0.005116,0.047718,0.027846,-0.032801,0.065602,0.030171,0.028771,0.003064,-0.090472,0.009996,0.021032,-0.050159,0.007317,0.031954,0.020557,0.015430,0.174241,0.029259,-0.107958,-0.089010,-0.032083,0.008851,0.054023,-0.030664,-0.015230,-0.000444,0.020501,0.049747,0.017121,0.118352,0.038248,0.004003,0.084837,0.023101,0.000318,-0.042099,0.047261,0.016841,-0.119279,-0.005841,0.001479,0.025961,0.020507,-0.026328,0.003815,0.050957,0.056523,-0.032464,0.078054,-0.107582,-0.029067,-0.047472,-0.077083,-0.088208,-0.022120,0.082933,-0.129766,-0.036873,-0.030275,0.044599,-0.034988,-0.000000,0.005691,-0.018141,0.063446,0.019640,0.005398,-0.049351,0.056440,0.140402,0.011864,0.008685,0.017330,0.000754,0.053271,0.106914,0.050062,0.046353,0.007633,0.034658,-0.040990,-0.023452,0.041324,0.084534,-0.020846,0.079742,-0.001457,0.032113,-0.025425,0.021000,-0.024974,0.022564,-0.003931,-0.020431,-0.011562,0.020695,0.061005,-0.061868,0.017147,0.005091,0.046507,0.049762,-0.061074,0.033076,-0.060055,0.088919,-0.007682,-0.032520,-0.129482,0.066799,-0.034718,0.020960,0.001787,0.011599,0.000923,-0.002109,0.004133,-0.040288,-0.010298,0.013810,-0.066352,-0.061412,0.071911,-0.115102,0.037977,0.050676
-0.018132,0.038782,0.014842,-0.035230,-0.070954,0.016826,-0.043537,-0.075035,-0.039612,-0.081770,-0.015768,0.065522,0.025755,0.042690,0.048372,-0.006342,-0.064291,-0.024488,0.023052,-0.062338,-0.022106,-0.052004,-0.041843,-0.026328,-0.014463,-0.041035,0.017771,0.063567,-0.019316,0.023346,-0.000060,0.021892,0.070481,0.003805,0.020169,0.059416,-0.047474,-0.030807,0.036433,0.005881,0.045907,-0.080515,-0.020058,-0.033770,-0.056505,0.062215,0.036325,-0.031308,0.087526,0.085612,0.001611,-0.033111,0.051329,0.017751,-0.027459,0.030893,0.011493,-0.018574,-0.014156,-0.029328,0.003019,0.030646,-0.020567,0.042354,-0.055730,0.015065,-0.032476,0.026774,0.013944,-0.060063,0.000305,-0.049850,-0.039263,-0.026511,-0.053139,0.057071,0.038424,0.016714,0.065669,-0.027202,-0.036887,-0.001287,0.029244,0.023202,-0.056525,0.037843,0.009263,0.043594,0.047588,0.050625,0.004848,-0.012956,0.013195,-0.053376,-0.096976,0.003565,-0.069247,0.009338,0.052230,0.063041,-0.034354,0.036966,0.001630,-0.085795,-0.005993,-0.010696,0.016746,-0.009946,-0.028035,-0.024740,-0.004658,0.036927,0.109509,0.039195,-0.016875,-0.064204,-0.107974,-0.021764,0.102840,-0.066373,0.044786,0.152420,-0.039394,0.010580,-0.001667,-0.120532,0.048240,-0.000000,0.043095,0.074748,0.044635,0.057213,-0.031923,0.026687,-0.020097,-0.018970,-0.052202,0.029693,0.137631,0.034615,0.047969,-0.044470,0.059913,0.008528,0.001207,0.031734,0.035037,-0.002917,0.046315,-0.104268,-0.000396,0.069872,0.027349,0.023728,-0.025077,0.017294,0.047964,-0.014939,0.173537,0.005218,-0.067358,-0.004764,-0.045307,0.029774,0.055779,0.013503,0.017985,-0.001841,-0.085278,-0.024038,-0.036365,0.031027,0.016446,-0.018527,0.055382,-0.015449,-0.042281,-0.004914,0.042741,-0.037686,-0.054920,-0.029610,-0.007269,-0.032297,0.105515,-0.117163,0.057275,-0.039187,-0.032936,0.005987,-0.088365,0.017802,-0.112297,0.002070,0.048492,0.051252,0.037059,-0.096218,0.001628,0.017400,-0.076095,-0.079788,0.057264,0.012624,0.000420,0.051730,0.107046,0.046853,-0.037940,-0.007027,-0.008737,0.056217,0.085092,0.089123,0.085655,-0.013410,-0.011521,0.090420,-0.027120,0.027746,-0.037208,0.075149,0.034860,0.000000,-0.021213,0.026663,0.051277,0.021730,0.019996,-0.031231,-0.048130,-0.023588,0.011177,0.069736,-0.020950,-0.017899,-0.003327,0.041162,-0.006925,-0.032281,0.014341,-0.012089,-0.040020,-0.086714,-0.061536,0.055511,0.017589,0.025549,-0.030001,-0.005593,-0.047282,0.010583,-0.041840,-0.028089,-0.028557,-0.032082,-0.124258,-0.070590,-0.038226,-0.000700,-0.000816,-0.058516,0.042574,0.033486,0.063398,-0.083171,-0.070866,0.046638,-0.037441,-0.037241,-0.030068,-0.146827,0.015928,-0.020382,-0.066440,0.037831,-0.102219,-0.136879,-0.046615,0.130830,0.108729,-0.018779,-0.022240,-0.009693,0.031358,0.063674,0.069609,0.020481,0.014897,-0.005912,0.034064,-0.028792,-0.041777,-0.025537,-0.012620,-0.001456,-0.095220,0.047613,-0.054002,-0.034377,0.056132,-0.101857,-0.025677,0.020265,-0.092175,-0.045872,0.056980,0.064014,0.009709,-0.041457,0.033384,-0.070908,-0.018465,-0.006844,-0.069224,-0.052287,0.014539,-0.045518,0.059384,-0.000000,-0.050022,0.131204,0.063993,0.051766,-0.000163,-0.042165,0.113797,-0.016657,0.063730,-0.049920,0.011032,-0.004505,-0.031775,0.058389,0.032353,0.017160,0.061603,0.046781,-0.035949,0.056341,-0.057481,0.078554,0.006428,0.047130,-0.014163,-0.030591,-0.025459,0.046487,-0.005273,-0.020881,0.009769,0.056092,0.002600,0.059195,-0.034587,-0.100060,-0.036514,-0.006827,0.046129,0.002083,-0.076461,0.097170,0.028302,0.125036,-0.042231,0.056603,-0.108869,0.035093,-0.013419,0.017282,0.010349,-0.047480,0.062025,0.005029,0.010222,-0.037884,0.005548,-0.040685,0.006058,-0.019339,-0.062994,-0.060014,-0.009099,-0.019014
-0.029879,-0.050905,0.057230,0.007023,-0.007575,-0.005692,-0.042356,-0.001211,0.092310,-0.003547,-0.033292,0.032252,0.086361,-0.064141,0.045171,0.000735,-0.046237,-0.074065,-0.008044,0.041633,-0.047163,0.046697,0.037585,-0.023423,-0.027837,-0.074339,-0.024606,-0.001797,0.037832,0.014536,0.025747,-0.006802,0.042259,-0.058955,0.016363,0.077794,-0.039135,-0.033287,0.016625,-0.001176,0.008668,-0.060550,-0.035179,0.028504,-0.097734,0.002516,-0.036061,-0.066156,0.005954,0.049140,-0.057464,0.063328,0.004824,-0.064722,0.020083,0.117517,-0.004449,-0.054878,0.024924,0.050685,0.003774,-0.011720,-0.080318,0.013993,0.018871,-0.053201,-0.021165,0.065655,-0.027371,0.056345,0.021977,-0.040741,-0.033940,0.005774,0.035251,0.086384,-0.018034,-0.020874,0.037949,-0.005459,0.127492,0.044177,0.037457,0.009457,0.005301,-0.016740,-0.010281,-0.008501,-0.015644,0.003351,-0.061974,-0.111764,-0.022665,-0.021204,0.010636,0.066662,-0.017262,0.001847,-0.016948,0.043115,-0.014165,0.082304,-0.044413,-0.059221,-0.021377,-0.036751,0.023626,-0.055763,-0.020873,-0.018050,0.039899,0.012887,0.051683,0.113733,0.008336,-0.030011,-0.086462,0.021284,-0.042311,-0.037546,0.018020,0.077392,0.007927,-0.006238,0.041863,-0.008717,0.017632,-0.000000,0.071422,0.049817,0.050004,0.082215,-0.066045,0.064810,0.026366,-0.045254,-0.084520,-0.016513,0.047967,-0.021460,-0.045399,0.023085,-0.029758,-0.032449,-0.000297,0.061699,0.013469,-0.004087,0.045982,-0.133532,0.006791,0.022054,-0.003104,0.005036,-0.019768,-0.033459,-0.061256,-0.029915,0.044118,0.058994,-0.111188,-0.007233,-0.050383,-0.014268,0.010868,-0.046770,0.037768,0.012711,-0.056243,0.063798,-0.110012,-0.011808,0.060098,-0.005125,0.018005,-0.045460,-0.080395,-0.058514,0.043181,0.041859,-0.014114,-0.049135,-0.063771,0.062052,0.033139,0.015370,-0.046479,-0.052974,-0.074563,-0.004200,-0.134761,-0.014708,-0.047847,0.087749,0.037653,-0.025430,-0.080727,0.047678,-0.030094,-0.004944,-0.093831,0.014061,-0.012572,0.064333,0.044226,-0.009011,0.099420,-0.038412,-0.057087,-0.053492,0.000471,-0.093428,0.082038,-0.017946,0.105084,0.002866,-0.018501,0.051333,0.018188,0.004431,-0.001896,0.118030,-0.032687,0.000000,-0.105106,-0.072532,0.008861,0.034844,-0.026913,-0.042337,0.083546,0.034993,-0.022628,-0.009132,0.043448,0.026478,0.002843,0.027269,-0.019879,-0.101729,0.105677,0.028510,0.053229,-0.011148,0.093804,0.083868,-0.065658,0.061560,-0.025341,0.038624,-0.072775,-0.009705,-0.098165,-0.010959,-0.011177,-0.029487,-0.003951,0.051900,0.002985,0.020032,-0.003021,-0.022688,-0.007589,0.086745,-0.028646,-0.052150,-0.083189,-0.054758,-0.036222,-0.016954,0.076308,-0.010740,-0.048346,-0.009145,-0.004152,0.079607,-0.136966,0.018508,-0.031857,0.016692,0.008960,-0.061390,0.077070,0.031871,-0.069779,0.047066,0.049658,-0.069799,0.123302,0.111054,-0.012935,-0.024840,-0.007286,0.018251,0.003059,0.062821,-0.028714,0.042391,0.056273,0.048270,-0.024472,-0.033243,0.029870,0.024590,-0.099314,-0.041223,-0.026107,0.051176,0.018962,0.050160,-0.036050,-0.026906,0.073572,-0.000102,-0.064614,-0.105673,0.015703,-0.147786,0.035311,-0.000000,-0.038492,-0.034796,0.060801,0.036574,-0.021772,0.029710,0.043529,0.021809,0.025364,-0.072681,0.048285,0.039987,0.005559,0.014382,0.031806,0.052818,0.008250,0.087644,-0.019227,0.015090,-0.047416,0.013196,-0.014832,0.066658,0.006874,-0.018824,-0.101826,0.063809,0.002232,0.052614,-0.008060,-0.125705,0.040958,0.020128,0.024487,0.011972,-0.012371,-0.053185,0.094901,-0.081404,-0.015196,0.112608,-0.059700,0.068159,-0.038231,-0.043579,-0.002830,0.097224,-0.029301,-0.065034,0.005461,-0.022418,0.041748,0.088279,0.088084,0.051490,-0.038272,-0.038344,-0.055978,0.000297,0.003692,-0.055403,0.017659,-0.028464
-0.021224,-0.063962,0.053651,0.062347,0.054340,-0.017213,-0.096854,-0.025004,-0.078831,0.031810,-0.103084,0.101654,-0.018774,0.015677,0.050097,0.035736,0.057647,0.047688,-0.059393,-0.060704,-0.026150,0.004793,0.037248,0.023708,-0.016028,0.039183,-0.098869,0.002641,0.074668,-0.081052,0.021843,0.087889,0.025420,-0.063785,-0.011794,0.005591,-0.045672,-0.015475,0.022511,0.023262,-0.088161,-0.100586,0.029038,-0.005709,-0.024781,-0.044647,0.035373,-0.071564,-0.031237,0.036887,-0.007253,-0.040904,-0.015311,-0.076653,0.047803,0.080905,0.020205,-0.104471,0.024469,0.018600,-0.041369,-0.010007,-0.008181,-0.016945,0.127453,-0.077886,0.022131,0.009115,-0.077354,0.044290,-0.036898,0.037118,0.013192,-0.083782,0.066136,0.015621,-0.037251,0.060519,0.099285,-0.023654,0.058073,-0.024184,-0.049697,-0.093247,-0.025652,0.011994,-0.011722,-0.008479,-0.005315,-0.043965,-0.004523,0.051777,-0.081390,0.011305,-0.012808,0.040648,-0.020115,-0.018380,0.006300,-0.012400,0.011659,0.036923,-0.041182,-0.095319,-0.009422,-0.053901,0.013712,0.161209,0.047548,0.041211,0.041730,0.049379,-0.062141,0.024989,0.002581,0.011488,-0.020693,-0.030715,-0.013604,-0.023131,0.025502,-0.015447,-0.013200,0.076528,0.001249,-0.010086,-0.051804,-0.000000,0.008826,0.008778,-0.001309,0.078902,-0.044390,-0.025153,-0.074786,-0.004201,0.028910,-0.064301,-0.072012,0.100222,-0.024011,0.081230,0.017345,-0.119889,0.005255,0.088758,-0.077421,-0.048968,0.002218,-0.078869,0.000729,0.037741,0.127753,0.046936,0.014040,0.037216,-0.043977,-0.010536,0.055926,0.018970,-0.072330,0.017022,-0.002083,-0.004968,-0.022876,0.030426,-0.010197,0.001207,0.006205,0.041351,-0.004832,-0.039564,0.002735,0.050056,0.046269,0.038435,-0.054542,-0.046278,-0.000607,0.034511,-0.035016,0.050030,0.082400,-0.002707,0.002350,-0.067331,0.006183,0.012574,-0.068704,0.005735,-0.050353,0.044326,0.001594,0.112998,0.098495,0.092176,0.020268,0.092651,0.067147,0.013259,-0.026347,0.003384,0.023975,0.017671,-0.022858,-0.041768,0.024894,0.027107,-0.035815,0.026551,-0.046400,-0.112909,0.060294,0.024725,0.030065,-0.020798,0.082632,-0.019863,-0.019177,-0.043028,0.010868,0.040660,-0.050905,0.000000,-0.005908,0.029880,-0.054361,0.077632,-0.018360,-0.037974,0.053954,-0.034204,0.003751,-0.013672,0.014302,0.010586,-0.018151,-0.059900,-0.048487,-0.080041,-0.050124,-0.074080,-0.031386,0.033557,-0.010374,-0.057261,-0.036896,-0.003995,0.036243,0.041368,-0.150207,-0.018934,-0.035254,0.013466,-0.070273,-0.020307,-0.050347,-0.043438,0.025683,-0.010290,0.034480,-0.041450,-0.017179,-0.005217,0.019712,-0.009390,-0.046055,0.060986,-0.007320,-0.034003,0.047382,0.052236,-0.000651,0.029886,0.137992,-0.023630,-0.070598,-0.073423,-0.065595,0.038674,-0.035531,-0.059490,-0.081017,0.003049,-0.043452,0.041711,-0.049507,0.083274,0.063339,-0.017719,0.019927,0.031066,-0.010538,0.089160,0.055128,-0.038710,0.003032,0.025282,-0.045414,-0.014709,0.082131,-0.047109,-0.005595,0.064593,-0.016003,0.022782,0.038467,-0.063774,0.013644,-0.027623,-0.036167,-0.025829,0.011818,-0.008460,-0.063011,-0.056216,-0.082216,-0.007976,-0.011411,-0.000000,-0.033133,0.057828,-0.009048,-0.010736,0.063654,-0.004587,0.025656,0.142014,0.009293,-0.032228,0.014131,0.014214,0.062980,0.035120,0.114399,0.040945,0.039906,0.068120,-0.022407,-0.111622,0.070282,0.055091,0.101138,0.019654,-0.038781,0.007459,-0.040414,0.021570,-0.078383,0.028845,0.049010,-0.035663,0.012941,0.009808,0.104240,0.036302,-0.027092,0.029328,0.025336,0.068885,-0.040309,0.139016,-0.031841,0.065605,-0.038348,-0.093807,-0.099272,0.045985,-0.023594,-0.037475,0.009859,0.025758,-0.013189,-0.095827,0.078189,0.014207,0.006832,-0.011297,-0.107106,-0.016649,0.060301,-0.081213,0.022012,-0.023886
0.033085,0.085083,-0.092743,0.017449,-0.080763,-0.026498,-0.060165,-0.033383,0.024878,-0.000638,0.027123,-0.052388,-0.003422,0.026175,0.018394,-0.060452,-0.018571,0.129752,0.005192,0.091896,0.062123,0.023461,-0.007778,0.004942,0.073969,-0.019887,-0.066067,0.004161,-0.037689,-0.025375,-0.007020,0.029856,-0.056111,0.009039,0.010970,-0.019132,0.069800,0.042554,0.019171,0.006811,0.064485,-0.024542,0.033959,0.000958,-0.036375,-0.093653,-0.056114,0.077605,0.050134,0.059693,0.030727,0.043304,-0.145844,-0.018370,-0.012782,0.018267,-0.005807,0.043472,-0.065579,0.056156,-0.140017,0.058074,-0.026307,0.035527,0.072131,-0.048648,0.050448,0.029212,-0.030673,-0.048080,-0.076789,-0.041450,-0.022261,-0.035210,0.010311,-0.092672,-0.053597,0.011835,0.054131,0.064170,0.051826,0.005976,0.000297,0.014310,0.048687,0.072477,0.008829,0.016155,0.031413,0.011392,-0.154243,0.007262,0.122304,0.023414,-0.065558,-0.000946,0.007394,0.026767,0.076316,0.080074,-0.061533,0.021421,-0.034628,-0.114310,-0.081631,-0.054756,0.020708,0.070232,0.033353,-0.031018,-0.043381,-0.012040,0.047526,-0.027326,0.009721,0.019355,-0.061285,0.013703,0.038390,0.033975,-0.014733,0.004044,-0.002099,0.108368,0.000999,-0.032855,0.028990,-0.000000,-0.070172,0.046294,0.119048,0.002203,-0.044654,0.041247,-0.083472,-0.023570,0.029088,-0.022316,-0.019840,0.005467,0.027797,0.065985,0.019824,-0.013370,0.008071,0.082266,0.006391,-0.007939,0.013321,0.062472,-0.045033,-0.017852,0.027493,0.008162,0.032323,-0.006900,0.081893,-0.005735,-0.030258,-0.010952,-0.065249,-0.037572,-0.025924,0.045783,0.099633,-0.034104,0.016671,-0.012954,-0.036011,0.005255,0.033601,-0.020736,0.027520,0.042477,0.033286,-0.015531,-0.002023,-0.006976,0.019266,0.021805,0.053399,-0.040533,-0.027059,-0.056389,0.074039,-0.012807,0.016887,-0.022820,-0.023493,-0.001109,0.061634,0.022231,-0.060203,-0.055773,0.014580,-0.078759,-0.068059,-0.018825,-0.072173,-0.046272,-0.047563,0.013632,-0.082625,-0.031946,0.003364,-0.001018,0.058343,-0.054359,-0.087082,0.050182,0.004567,-0.027278,0.109573,0.019490,0.004185,-0.045420,-0.027636,-0.018887,0.017207,-0.008436,-0.025523,-0.071425,-0.052902,0.000000,-0.109711,-0.012249,-0.018203,0.058896,-0.000723,0.012983,0.069281,-0.038794,0.079477,0.037755,-0.004717,-0.031384,0.020700,-0.047201,0.034839,-0.011509,0.050488,0.041745,-0.038716,0.061116,-0.062452,0.050577,-0.004334,0.078959,0.023765,0.077310,0.010060,0.055812,0.003991,0.083787,-0.025336,-0.098648,-0.027064,-0.014895,-0.101452,-0.016410,0.060733,-0.010302,-0.068320,0.004381,-0.057553,0.018224,-0.017847,0.053342,-0.032526,0.077721,0.049880,0.054178,0.049525,0.039470,0.011917,0.031337,-0.101875,-0.045710,-0.064752,-0.077670,0.056286,-0.047425,-0.000494,-0.054959,-0.046090,-0.040917,0.090788,-0.096179,0.015820,-0.014841,0.010800,0.084792,-0.059352,0.066992,0.160408,0.006276,0.013775,0.017175,0.025859,-0.124897,0.042460,0.022782,-0.008490,-0.093505,-0.028212,-0.059145,0.050521,-0.009435,0.026433,-0.139674,0.048931,-0.057066,0.041368,0.047255,-0.083753,0.057394,0.024797,-0.029985,0.001880,-0.000000,-0.038236,0.000643,0.021753,0.061417,-0.049561,0.064550,0.039943,-0.074004,0.040792,0.006765,-0.008951,-0.013326,-0.016029,-0.006914,0.032010,0.043566,0.013310,-0.010796,-0.060272,0.071822,-0.044774,0.062631,-0.018616,-0.007911,0.012227,0.016741,-0.070409,0.074590,0.100633,-0.027168,-0.043067,0.007595,-0.043961,0.042834,0.036346,-0.031351,-0.086853,0.081103,0.043883,0.004698,-0.002979,-0.025674,-0.119936,0.095077,-0.013222,-0.072904,-0.014002,-0.029283,0.028163,-0.034863,0.079529,0.020497,-0.001719,-0.072440,0.061199,-0.035494,0.017191,0.025436,-0.059074,0.117321,0.028513,0.007694,0.050520,-0.013816
0.016206,0.031298,0.041022,0.050304,0.075109,-0.002891,-0.012523,-0.028947,0.085469,0.005916,0.021238,0.068629,0.044216,0.020726,-0.004485,-0.063221,-0.069359,0.052681,0.028645,0.008782,-0.026621,-0.035286,0.023712,0.060413,-0.022846,-0.002207,-0.018456,0.013717,0.063654,0.054706,-0.013730,0.051633,-0.013532,-0.042502,0.074816,0.038514,0.015656,0.001864,-0.013578,-0.009511,-0.018396,-0.055901,-0.079109,-0.020995,-0.075271,0.039092,-0.017688,-0.069337,-0.017349,0.005225,0.017681,0.100355,-0.063398,-0.077509,0.014957,-0.044949,0.017617,-0.091646,0.044244,0.008500,0.033440,-0.028785,-0.074505,0.072020,0.087030,0.031010,0.019998,0.078920,-0.128946,0.027096,0.008747,0.010346,0.008237,-0.000451,0.009635,0.001891,0.113473,0.045280,0.047829,0.034448,0.070464,-0.015793,-0.049349,-0.075378,-0.028825,-0.036261,-0.032533,-0.113104,-0.011654,-0.043355,-0.060186,-0.057135,-0.046091,0.083197,-0.037053,0.046684,-0.035054,0.044036,-0.022809,0.014002,0.002304,0.042973,-0.011925,-0.061406,0.001041,-0.037736,0.027191,-0.008634,0.013241,0.011904,-0.012414,-0.031575,-0.092084,0.076573,0.025576,-0.015649,0.071522,-0.069526,0.022910,-0.067789,-0.025579,0.046290,-0.024568,0.010235,0.015210,-0.077346,-0.056975,-0.000000,-0.020864,0.083927,0.106469,-0.126128,0.007425,0.019723,-0.070616,0.031424,-0.002619,-0.076768,-0.008027,0.003388,0.034735,0.022253,0.047237,-0.089947,-0.029092,0.061666,0.039384,-0.070635,-0.032626,-0.060197,0.062106,0.000925,0.071723,-0.062564,0.045172,0.011277,-0.011995,-0.007324,0.047260,0.052036,-0.078719,0.034140,-0.047049,0.007600,-0.049571,0.043914,-0.062689,0.037942,0.000982,0.013621,-0.058461,-0.010115,0.135626,-0.053424,0.076274,-0.017936,-0.101601,-0.055071,0.014666,0.073179,-0.046473,-0.066496,-0.016668,-0.028055,0.026492,-0.026324,-0.024156,-0.065614,-0.079269,-0.074653,-0.028447,0.000907,0.022065,0.061134,0.019451,-0.003443,-0.118257,0.011733,-0.037563,0.014950,0.029805,0.097529,-0.051473,0.044101,0.021033,0.024028,0.020194,0.010430,-0.112566,-0.012073,0.011850,-0.041345,0.133345,-0.006877,0.106853,0.008891,0.034220,-0.076763,-0.035764,0.021948,-0.007310,0.032626,-0.021561,0.000000,-0.031105,0.035360,-0.003909,0.035974,-0.036089,-0.047030,-0.001024,-0.070423,-0.011642,0.053063,0.039412,0.024718,-0.008157,0.052854,-0.015906,-0.071923,0.030837,-0.058826,0.010586,-0.030880,-0.010650,0.096048,-0.027781,0.089390,-0.030682,0.043463,-0.035313,0.013480,0.031650,-0.035430,-0.071940,-0.020270,-0.122993,0.025350,-0.059857,0.036603,-0.006486,-0.001625,0.053219,0.046806,0.007489,-0.070183,-0.110454,-0.005128,0.040945,-0.050333,0.043874,0.001439,-0.002221,0.014581,0.050136,0.021530,-0.097061,-0.041989,-0.044732,0.015272,0.092271,-0.050726,0.018782,-0.025844,0.001540,0.087334,0.043415,0.096469,0.060234,0.004527,0.041048,0.025305,0.064039,0.002895,0.056476,0.038961,-0.097041,-0.010142,-0.011664,0.015516,0.000357,-0.029764,0.016609,0.019933,0.049464,-0.053437,0.038964,-0.104975,-0.056708,-0.087830,-0.056103,-0.052018,0.012383,0.100371,-0.099923,-0.022405,-0.011283,0.062035,-0.060974,-0.000000,0.026368,-0.008255,0.088046,0.032911,0.044079,-0.038394,0.042832,0.132801,-0.004307,0.025984,0.045270,0.015924,0.049336,0.096985,-0.009322,0.040110,-0.026288,-0.010011,-0.057144,0.015313,0.010844,0.095650,-0.062151,0.043520,-0.001083,0.001159,-0.012152,0.065492,-0.006025,0.012601,0.001519,-0.025574,-0.039724,0.019114,0.021728,-0.065054,-0.021978,0.045049,0.038028,-0.034859,-0.048503,0.121499,-0.034638,0.063794,0.019716,-0.032078,-0.140953,0.070587,-0.037290,0.008435,-0.010721,0.035286,0.010955,0.019146,0.019199,-0.008907,-0.046423,-0.007648,-0.081060,-0.083191,0.036001,-0.128667,0.067302,0.026162
-0.004920,0.008922,0.034280,-0.025722,0.022950,-0.015951,-0.024647,0.066954,0.001800,-0.005690,-0.014135,0.114990,0.058119,-0.024429,0.075263,-0.000103,0.012825,0.010129,-0.038385,-0.039436,0.014074,-0.059262,0.012952,0.019222,0.121901,0.013318,-0.049859,-0.004629,-0.029411,0.020021,-0.121630,0.034037,0.006671,-0.041174,-0.010394,-0.009037,-0.005687,0.011996,-0.004972,0.026455,-0.038833,-0.032867,-0.036256,0.026060,-0.079322,-0.015816,-0.026957,-0.041329,-0.040180,-0.007268,0.013641,0.076612,-0.037127,-0.048849,-0.004043,0.013842,0.010104,0.006671,0.004964,0.013940,0.025137,-0.053546,-0.038201,-0.001904,0.067225,-0.000766,0.023435,-0.086771,-0.094543,0.060901,-0.001867,-0.025767,0.041865,-0.098594,0.029483,-0.021781,0.134257,0.111065,0.063131,-0.006170,0.118929,-0.004187,-0.063445,-0.005859,-0.064666,-0.064440,-0.030896,-0.072676,0.008705,-0.084976,-0.022201,-0.014563,-0.023450,-0.007496,0.015476,0.023440,0.001832,-0.016673,0.008452,0.032293,0.019287,0.053655,0.015524,-0.098993,-0.066785,-0.025034,-0.005851,0.028594,0.038149,0.036525,-0.011450,-0.013916,-0.037630,0.051486,-0.033302,0.005092,0.093196,-0.045893,0.051574,0.016632,-0.017806,0.005794,-0.062105,-0.058513,-0.034808,-0.103513,-0.076062,-0.000000,-0.026390,0.092959,0.005528,0.014562,-0.051687,-0.017879,-0.097983,0.014560,-0.014182,-0.067177,-0.036968,0.036260,0.000646,0.029925,0.084704,-0.117014,-0.013171,0.073896,0.094817,-0.041972,-0.044288,-0.040378,0.027890,0.006471,0.084756,-0.098893,0.006319,-0.014911,-0.008238,-0.035361,0.052128,0.037275,-0.022130,-0.018274,-0.010921,0.045226,-0.019908,0.014743,-0.002459,0.081865,-0.111918,0.042692,-0.039075,-0.039507,0.041753,-0.058033,0.051862,-0.054272,-0.064624,-0.015083,-0.020717,0.060020,0.002587,-0.042894,0.012082,-0.031083,0.039030,-0.008280,0.060228,0.019035,-0.047815,-0.053782,-0.010154,-0.043391,-0.045003,0.076924,0.031375,0.047731,-0.049637,0.108983,-0.050839,-0.020812,-0.023227,-0.000583,0.067155,0.044079,0.007773,-0.050520,0.075849,-0.037068,-0.127546,-0.015887,0.073492,-0.093367,0.045881,-0.016035,0.061486,-0.099531,0.005482,-0.016687,-0.051496,0.015331,-0.018919,0.020254,0.095680,0.000000,-0.080407,0.068863,-0.052314,0.040458,0.015625,-0.049517,0.023716,-0.048452,-0.021832,0.074788,-0.015764,0.047853,-0.066748,0.000422,-0.023597,-0.011419,0.031183,-0.109583,0.010796,-0.045353,0.093165,0.053352,-0.001378,0.045749,-0.054118,0.066465,-0.123957,0.002556,0.050249,0.004091,-0.108554,-0.047418,-0.008846,0.048742,-0.010333,0.023185,-0.018651,0.005722,-0.027093,-0.068466,0.033320,0.001643,-0.071064,0.086576,0.027889,-0.018043,-0.001390,0.016646,0.049309,0.013131,0.072577,0.012937,-0.024822,0.029325,-0.045946,0.018375,0.118190,-0.050426,-0.027909,0.119473,-0.031289,0.033615,-0.008927,0.013247,0.061860,0.026621,0.073577,0.016366,0.021250,-0.019573,-0.030839,0.055174,-0.027126,-0.072118,0.006649,0.022240,0.008393,0.013902,0.008851,0.071561,0.046388,-0.007773,0.023524,-0.073835,-0.050874,-0.039220,-0.026566,0.003727,-0.048606,0.040528,-0.099109,-0.012560,0.043801,0.055801,-0.057162,-0.000000,0.052235,0.026430,0.049427,0.057257,0.004164,-0.002659,0.039781,0.201100,0.027709,-0.060931,-0.063128,-0.020795,0.038344,0.096115,0.102894,0.022438,-0.030775,0.071422,-0.033279,-0.039671,0.054523,0.050661,-0.002067,0.028391,0.048301,0.070110,-0.051460,0.095025,-0.035815,0.040532,-0.037163,-0.030247,0.026804,-0.001683,0.013674,-0.048883,0.023775,0.010032,0.039840,-0.032916,-0.034480,0.023224,-0.035984,0.081959,0.000521,-0.068140,-0.131259,0.045032,0.025489,-0.060988,0.005070,0.036154,0.050733,0.011154,0.007211,-0.005233,-0.011332,-0.022057,-0.131878,-0.018728,0.001589,-0.128527,0.065708,0.055562
0.031237,-0.015633,-0.014648,-0.002812,0.016466,-0.008898,-0.089743,-0.029285,0.095118,0.017308,0.007622,-0.003321,-0.001200,-0.025680,0.026456,-0.010117,-0.110373,-0.134886,-0.001076,0.076228,0.088010,0.040273,0.029834,0.031117,-0.030730,-0.029899,0.017461,0.016543,0.001571,0.005505,0.034297,-0.044856,-0.005558,-0.031310,0.062707,0.069187,0.005613,0.009096,0.022080,-0.124834,0.035388,-0.038056,-0.039065,0.116922,0.000972,-0.063847,-0.028741,-0.113407,-0.018975,0.029703,-0.031295,0.044050,-0.012503,0.055570,0.035241,-0.020745,-0.014363,-0.087974,0.032861,0.052030,0.020495,0.021015,-0.048754,0.000847,0.036959,-0.084396,-0.002058,0.047828,-0.020109,0.036040,-0.038967,-0.037361,-0.029750,0.031101,-0.054737,0.025825,0.017729,0.044890,0.046522,0.020668,0.016799,-0.083926,0.045716,0.011831,-0.047508,-0.015441,-0.016137,-0.039970,0.007394,0.040795,-0.122585,-0.082507,-0.036013,0.048167,-0.003869,0.030201,0.014261,0.088648,0.047345,0.024911,-0.030788,0.042711,-0.112121,-0.094790,0.032942,-0.027263,0.012633,-0.042686,0.037755,-0.048848,0.004608,-0.052670,0.032513,-0.045318,0.086586,-0.010856,0.019794,0.048137,-0.030251,0.056695,0.037564,0.032713,-0.117130,0.087739,0.005175,-0.000332,0.013703,-0.000000,-0.018972,-0.092009,0.020906,-0.055551,-0.016206,0.048019,0.054608,0.055938,0.018378,0.039904,-0.082281,-0.056125,-0.003679,0.020016,0.032230,-0.020928,0.062580,0.073498,-0.019091,-0.052974,0.004096,-0.035297,-0.014095,0.000314,0.027029,0.084368,0.011490,-0.039520,-0.072559,-0.006066,-0.031530,0.093930,0.029213,0.042227,-0.044943,-0.007499,-0.018628,-0.011012,-0.047892,-0.016834,-0.018360,0.025022,-0.131274,0.008366,0.028949,-0.144503,0.175200,0.006424,-0.091916,0.031109,0.062444,0.027849,-0.002569,-0.034271,-0.025737,0.067345,0.011671,-0.023890,-0.071818,-0.024823,-0.057146,0.016699,-0.020234,-0.009300,-0.074969,0.031020,0.014108,-0.019869,-0.070837,0.053080,-0.048458,0.037865,0.065466,0.057843,-0.014523,0.019820,0.030778,0.022287,0.113789,-0.011084,0.039858,-0.053113,0.023311,-0.021155,0.063910,0.013961,0.014779,0.017806,0.003003,-0.063748,-0.075775,0.016907,0.002195,0.097264,-0.046400,0.000000,-0.045770,-0.003459,0.004475,-0.045824,0.009656,-0.020877,0.044639,0.065343,0.032215,0.003636,0.117693,0.000902,0.048144,0.073163,0.027996,-0.040532,0.083205,0.028772,0.027522,0.011347,0.051821,0.003977,-0.069719,0.069588,0.035744,0.094581,-0.034510,-0.020860,-0.097143,-0.007559,0.055314,-0.106222,-0.048522,-0.071720,-0.000686,0.067084,0.087275,-0.059185,0.011855,-0.024729,0.047268,-0.066283,-0.040060,0.067371,0.046179,-0.027902,0.076478,0.088199,-0.030797,-0.062705,-0.018400,0.000003,-0.062421,-0.008540,-0.019818,-0.037854,0.053217,0.046392,0.060060,-0.058708,0.037539,0.032464,-0.006830,-0.014643,0.090441,0.023220,-0.047544,0.114484,0.004037,0.053034,0.065565,0.000335,-0.132142,-0.047322,0.035978,0.131458,-0.022609,-0.007663,0.089311,-0.023179,0.009858,0.003160,-0.018944,0.001527,0.021840,-0.054421,-0.032406,-0.048393,0.039801,-0.002848,-0.066469,-0.053475,0.037992,-0.057771,-0.039025,-0.000000,0.014436,0.030676,0.074445,-0.085865,0.023064,0.030071,0.100114,0.027006,0.014866,0.039339,0.030133,0.029587,-0.061411,0.007380,0.003047,0.018393,0.005551,-0.101716,-0.009957,-0.005151,-0.088790,0.045206,-0.069388,-0.030839,-0.046002,0.068201,-0.109102,0.069721,-0.031695,-0.040191,0.079391,-0.051884,-0.039654,0.033993,-0.031234,0.024269,-0.005761,0.052773,-0.040778,0.020668,-0.040931,0.087144,0.012525,0.053312,0.019254,-0.033293,-0.038491,-0.015627,-0.076957,-0.016885,0.050184,-0.017116,-0.018122,-0.033864,0.048843,-0.027502,-0.006366,-0.003242,-0.082373,0.024602,0.033983,-0.108079,0.037263,0.013149
0.019185,-0.005007,0.063448,0.034722,0.067135,-0.040015,-0.008464,-0.006337,0.055058,-0.021913,-0.021175,0.100943,0.046188,-0.018855,-0.009945,-0.010717,0.022135,-0.068311,-0.039694,0.005783,-0.001163,-0.025055,0.042585,-0.013104,0.047475,-0.016769,-0.026515,-0.068648,0.039850,0.046375,-0.083963,0.006839,-0.041198,-0.021132,0.079684,-0.004665,-0.015615,-0.024021,0.031942,-0.024818,0.002931,-0.112733,-0.077430,0.047689,-0.079473,0.004793,-0.004669,-0.085603,-0.065559,0.008586,-0.013120,0.042281,0.013165,-0.102229,-0.033203,-0.053699,0.024382,-0.051262,0.062692,0.057643,-0.006039,-0.057325,-0.076126,0.041310,0.097358,-0.007075,0.074266,0.045559,-0.104293,0.060545,-0.048706,-0.025284,0.030399,0.024484,0.032121,-0.033875,0.139027,0.057186,0.042012,-0.013516,0.058819,-0.022318,-0.019528,-0.060357,-0.017832,-0.025902,-0.024681,-0.072510,-0.014709,-0.079213,-0.029579,-0.036855,-0.022307,0.036810,0.028988,0.071977,-0.060317,-0.009380,-0.000362,-0.038592,-0.021161,0.092269,-0.000175,-0.034535,-0.062791,-0.040735,0.027251,0.012434,0.069496,-0.012002,0.016403,-0.008978,-0.052419,0.052586,0.000867,-0.009764,-0.025454,-0.017304,0.016472,0.036318,-0.016955,0.031052,-0.032923,-0.021628,-0.000401,-0.062245,-0.073882,-0.000000,0.005902,0.088939,0.035864,-0.018048,-0.070650,-0.000124,-0.073403,0.044605,0.006434,-0.064320,-0.020426,-0.029369,-0.025413,0.032754,0.067407,-0.069698,0.020462,0.089367,0.080940,-0.016574,-0.007338,-0.052241,0.038678,-0.034901,0.085417,-0.029744,0.043656,0.028601,0.053587,0.002431,-0.024956,0.067740,-0.091324,0.025655,-0.045891,0.004127,-0.050220,-0.001883,-0.020745,0.037268,0.000276,0.037533,-0.032289,-0.016757,0.064061,-0.068550,0.045276,-0.051328,-0.111736,-0.041057,-0.028842,0.085810,-0.031345,-0.022649,0.029934,-0.056457,0.012948,-0.025873,0.035339,-0.012731,-0.116792,-0.026695,-0.082284,0.026787,-0.027941,0.126081,0.033137,0.041715,-0.132788,0.087804,-0.013712,-0.031015,-0.012950,-0.003124,-0.007055,0.080135,-0.005280,-0.020854,0.053944,0.010189,-0.091750,-0.010126,0.023435,-0.074297,0.057106,-0.015393,0.054873,-0.033568,-0.008964,0.005204,0.022871,-0.014069,-0.040307,0.080696,0.014398,0.000000,-0.040223,0.047168,-0.001467,0.061969,-0.057276,-0.044715,0.025494,-0.036237,-0.031350,0.019097,-0.032587,0.059658,0.002892,0.016704,-0.030063,-0.059166,0.034333,-0.083266,0.055550,-0.055051,0.023810,0.087429,-0.023105,0.054800,-0.034120,0.047297,-0.094838,-0.008698,-0.026030,0.005637,-0.129036,-0.069132,-0.044007,0.054362,-0.031519,0.037041,0.032905,0.027629,-0.003979,-0.037966,0.006760,-0.018418,-0.072158,-0.010622,0.027231,-0.035438,0.049267,0.029657,0.033379,0.045223,0.119150,0.029330,-0.074643,-0.024241,-0.085603,0.004017,0.067599,0.007535,-0.012940,0.022261,-0.023383,0.059560,0.043317,0.077459,0.060768,0.003576,0.058735,0.015829,0.091375,0.006273,0.052908,0.010287,-0.092520,-0.001630,-0.067032,0.000024,0.070359,-0.050591,0.012495,0.074782,0.078080,-0.038981,0.059628,-0.075157,-0.056919,-0.052453,-0.028755,-0.038094,-0.041375,0.078723,-0.122606,-0.058812,0.009896,0.037911,-0.081250,-0.000000,0.026171,-0.011584,0.077784,0.014503,0.051426,-0.039727,0.041291,0.154566,0.019215,-0.040464,0.048761,-0.004348,0.055626,0.089236,0.022370,0.092069,-0.027304,0.028421,-0.030273,-0.002529,0.045766,0.082444,-0.046853,0.083604,-0.004567,0.042200,-0.084932,0.088829,-0.044992,0.033619,-0.052129,-0.081277,0.012738,0.001753,0.018076,-0.018324,0.004977,-0.007601,0.114985,-0.071899,-0.046895,0.033464,-0.069815,0.103799,0.018879,-0.076599,-0.097496,0.069683,0.002910,0.013543,-0.001058,0.000754,0.005191,-0.021189,0.062115,0.016597,-0.008352,-0.031341,-0.075991,0.001973,0.039278,-0.099575,0.094573,-0.020325
-0.021443,-0.024531,-0.050654,0.048667,0.059515,0.005137,-0.016317,-0.065820,-0.034898,-0.042912,0.017442,0.111177,-0.029509,0.007045,0.061320,0.006911,0.000390,-0.035655,-0.025758,0.013001,-0.101564,0.005913,-0.021675,0.040599,-0.045891,-0.013739,-0.027490,0.075140,0.027310,-0.039331,-0.055908,0.018708,0.089112,-0.017617,-0.019251,-0.035091,-0.075557,-0.040066,-0.013006,-0.067282,0.011601,-0.057225,-0.107533,0.038808,-0.047434,-0.005192,-0.041848,0.004264,0.065873,0.082187,0.059275,0.024746,-0.148091,-0.077952,-0.010201,0.030416,-0.102729,-0.051208,-0.089993,-0.025685,-0.057629,0.053678,-0.043874,0.068147,-0.007805,0.006541,-0.029609,0.077535,-0.049373,-0.078985,0.033684,-0.025189,-0.040266,0.046994,0.052269,0.025823,0.119473,0.008445,0.038831,-0.028734,-0.043770,-0.036784,-0.003776,-0.040044,-0.023709,-0.008345,0.014320,-0.075469,-0.025982,0.011759,-0.013243,-0.090948,0.011761,0.022721,0.036116,0.079148,-0.040498,-0.049187,0.010960,0.013718,-0.010983,0.018637,0.019951,-0.056804,-0.119395,-0.046291,-0.041764,0.069469,0.025125,0.021815,0.040760,0.028801,0.078786,-0.060384,-0.086348,0.000501,-0.097607,-0.027725,0.056600,0.021897,-0.020406,0.085424,0.060073,0.014419,-0.025190,0.056835,0.005104,-0.000000,-0.054304,0.011498,0.045049,-0.007093,-0.022114,0.018328,0.006464,0.053430,0.025814,0.031343,-0.023909,0.057611,0.002695,0.102827,0.078607,-0.081473,-0.025007,0.055142,0.042871,-0.020555,-0.120601,0.014060,-0.019323,-0.030937,0.036588,0.035348,0.013961,0.040546,-0.012665,0.046366,-0.021149,0.021952,-0.045169,0.025805,0.010110,0.049241,-0.035481,-0.028417,-0.047080,0.025350,0.046925,-0.020715,-0.085713,-0.020808,-0.095802,-0.009034,0.076379,-0.062395,-0.019892,0.011316,-0.033505,0.014293,-0.019778,0.000934,-0.084869,-0.031733,0.050858,-0.033684,0.048279,-0.082999,-0.048047,0.078397,0.049202,0.034332,-0.004211,0.086388,-0.029826,-0.040183,-0.097783,0.061712,0.091891,0.001437,-0.023022,-0.069088,0.002490,0.058123,-0.010936,0.057345,0.147984,-0.009369,-0.126946,0.016335,0.054268,-0.043397,0.065409,0.037845,0.043362,0.025000,0.091219,-0.054495,0.040232,0.022750,-0.037271,0.004493,0.049857,-0.000000,-0.051552,0.045832,0.031650,0.013881,-0.033374,-0.018134,-0.012650,-0.034763,0.016593,0.045186,-0.015863,0.106313,-0.037722,-0.042367,0.005666,-0.063848,-0.006580,-0.021000,0.011166,0.009560,0.024861,0.026049,-0.022744,0.069899,0.062084,-0.068920,-0.024010,0.034755,0.082575,-0.046798,-0.003034,-0.050812,-0.008749,0.033189,-0.029212,-0.074429,0.085239,0.101543,-0.038465,-0.025523,-0.011393,-0.125178,-0.071899,0.052476,0.035971,-0.050748,0.102523,-0.110314,0.081974,0.011586,0.031557,0.000642,0.025471,0.104826,-0.099891,0.055091,0.044560,0.000908,0.058761,-0.011973,0.052106,0.032786,0.019278,-0.107038,0.023614,-0.056812,-0.004721,-0.048309,-0.031301,-0.025510,-0.007834,-0.043814,-0.017473,-0.024711,-0.080274,-0.007512,0.124916,-0.015924,0.060197,-0.007183,0.020339,-0.095845,0.017240,0.069722,-0.038314,-0.081234,-0.029441,-0.032737,-0.020593,0.054345,-0.085244,0.079357,-0.042894,-0.019443,-0.092079,-0.000000,-0.057684,0.025869,0.030994,0.086569,0.043216,0.029795,0.040657,0.011903,0.017899,0.006780,-0.004119,-0.018021,0.017705,-0.052479,-0.007311,0.019978,-0.007823,0.059980,-0.015787,0.016628,0.017626,0.068579,0.099836,0.000732,-0.047131,-0.056963,0.043829,0.001193,0.022488,0.005575,-0.112805,0.041611,0.004728,-0.013870,0.030647,-0.057280,0.070695,0.051067,-0.007954,-0.039928,-0.026823,-0.085327,-0.038165,-0.008987,0.033212,-0.009736,-0.081227,0.004534,-0.005975,-0.061592,0.095341,0.027043,0.017519,0.027078,0.051305,-0.008516,-0.010730,-0.065344,-0.038168,-0.003220,0.025267,-0.080418,0.061526,-0.014836
-0.038297,-0.049053,0.062820,-0.024772,-0.015810,0.053588,-0.059715,-0.015974,0.027532,0.051593,-0.022752,0.005478,-0.013880,-0.018109,0.069026,0.035108,-0.017850,0.007958,0.083449,0.064144,-0.032893,-0.001397,0.000948,0.027782,0.002685,-0.032841,0.008124,0.090403,0.026380,-0.052307,-0.028947,0.027718,0.079483,-0.070842,0.019625,0.038256,-0.101982,-0.028495,-0.061915,0.027222,-0.036856,-0.054609,0.002664,0.079968,-0.077824,-0.012453,0.000648,-0.029697,-0.020545,0.003296,0.033657,0.034555,-0.041462,-0.045982,0.040943,-0.082172,-0.093670,-0.043454,0.043886,-0.021689,-0.038920,0.082397,-0.041742,-0.012033,0.016986,-0.058718,0.019563,0.097633,-0.097016,-0.005120,0.038086,0.025667,-0.012207,-0.059835,-0.011067,0.077152,0.005812,0.014214,-0.051330,-0.104152,-0.006865,0.006938,0.046767,-0.145121,-0.040952,-0.025309,0.002177,-0.021821,-0.053699,-0.044223,0.058032,-0.040877,-0.095306,0.057419,0.004103,0.104051,-0.054922,0.068024,0.053240,-0.005076,0.006011,0.047018,0.007235,-0.018591,0.047961,-0.027676,-0.028698,0.026498,0.018626,-0.026771,-0.019041,0.033188,-0.041803,0.043964,-0.023348,0.027604,-0.060182,-0.000560,0.002409,-0.028018,-0.059483,0.076496,-0.048673,0.095450,0.058561,0.059848,0.030616,-0.000000,0.040983,-0.030980,-0.009661,0.002595,-0.058432,0.020971,-0.070818,-0.020855,-0.055515,-0.040416,-0.028151,0.031386,-0.028956,0.035008,0.032939,-0.102467,-0.078892,-0.001134,0.086844,-0.034476,-0.042215,0.072135,-0.039363,-0.050324,-0.039393,0.064249,0.122294,-0.004293,-0.118174,0.035998,0.035136,-0.021467,-0.100078,-0.041110,0.019494,0.036116,0.026658,0.006694,-0.093214,0.001758,-0.006314,-0.039811,-0.166185,0.016037,0.037315,-0.067322,0.086537,0.029571,-0.046372,-0.027792,0.069919,0.021151,-0.012805,-0.034466,0.000167,-0.011088,0.026660,-0.026585,-0.032700,0.059925,0.019590,-0.044707,-0.013217,0.033502,-0.033562,0.038554,0.046601,-0.018868,-0.029816,-0.037496,0.000477,-0.028015,0.043237,0.035109,-0.045428,0.003049,0.046949,0.027157,0.087927,0.054944,-0.088737,-0.101457,-0.022571,-0.031809,0.082075,0.084132,0.054023,-0.014062,0.010673,-0.049805,-0.022003,-0.026263,-0.000849,0.011984,0.010324,-0.000000,-0.039196,-0.012067,-0.022166,0.031932,-0.012601,-0.029060,0.050409,0.091958,-0.006403,-0.053913,0.035608,0.064507,0.018302,-0.032850,-0.040157,-0.097450,-0.039710,0.027483,0.012855,0.061814,0.020576,-0.057225,-0.041138,0.065024,0.017711,0.060646,-0.060654,-0.002099,-0.082384,0.010304,0.033571,0.007568,-0.040099,-0.054501,-0.005306,-0.039479,0.012993,0.139923,-0.030434,0.009191,0.012032,0.018011,-0.062996,0.034184,-0.006628,0.019658,0.125419,0.074425,-0.010674,0.022641,-0.055145,0.035386,-0.043483,-0.091900,-0.039012,0.026959,-0.025269,-0.084629,0.053066,0.023464,0.044999,0.094700,0.076751,-0.014220,0.064853,0.110808,-0.016791,-0.028616,0.016246,0.023182,-0.046158,-0.024858,-0.143342,-0.014077,0.035055,0.080999,0.019802,-0.010091,0.047303,0.065180,0.016152,-0.023879,-0.020067,-0.021358,-0.046932,0.071052,-0.055738,-0.040893,0.030825,-0.001765,-0.079239,0.044219,-0.021665,-0.048210,-0.036103,-0.000000,-0.044569,0.065623,0.085819,0.088759,0.050784,0.011423,0.039910,0.027211,-0.018247,0.041380,0.098631,0.050565,0.040267,-0.043067,0.045039,0.082806,0.065087,-0.034051,-0.063700,0.026683,0.004280,0.083480,0.066077,-0.033263,-0.091686,0.048578,-0.024005,0.044293,0.045107,0.061034,0.096741,-0.056053,-0.085883,-0.017325,0.023650,0.007047,0.011894,0.009274,-0.025034,-0.052682,-0.075048,0.003303,0.071775,0.042212,0.010061,0.016347,-0.049429,0.020114,-0.041408,-0.040206,-0.008290,-0.039121,-0.067862,0.017391,0.065464,0.046548,-0.002756,0.021466,-0.103723,-0.091083,-0.000527,-0.148707,0.007361,0.026385
-0.066263,-0.066530,0.008764,0.085469,0.014689,-0.070572,-0.086292,-0.036638,0.025538,0.026175,0.037778,0.049182,0.006881,-0.016790,0.003821,0.009053,0.014763,-0.083935,-0.024470,-0.015997,-0.096754,-0.047625,-0.003077,-0.018577,0.044887,0.024509,-0.091553,0.068919,0.062666,-0.011119,-0.081173,0.026031,0.114385,-0.014483,0.057172,0.027050,-0.095466,-0.042564,0.024914,0.030312,0.003655,-0.056523,-0.025278,0.027299,-0.070192,-0.025485,-0.017610,-0.011400,0.010819,0.012286,-0.055576,0.010061,-0.039848,-0.117729,-0.003426,0.000301,-0.040918,-0.049450,0.010069,0.010669,-0.007744,-0.001238,-0.037779,0.052475,0.030233,-0.025572,0.031616,0.092494,-0.065723,-0.039770,0.013557,0.055811,-0.036330,0.056227,0.052780,0.023907,0.062519,-0.001786,0.036741,-0.086760,-0.047024,-0.007070,-0.000362,-0.051792,-0.097655,-0.005455,0.059339,-0.001784,0.008150,-0.074598,0.054399,-0.051972,-0.080155,0.010408,0.033629,0.132067,-0.087119,-0.009465,-0.084548,-0.058439,0.029505,0.049626,-0.061433,-0.034751,-0.047826,-0.004817,-0.019356,0.048667,0.017947,0.062799,0.050244,0.050750,0.028202,-0.002007,-0.089360,0.004408,-0.112095,0.004800,0.037280,0.032939,0.046879,0.063049,-0.020521,-0.029012,-0.001084,0.043467,0.105628,-0.000000,0.036399,0.010075,0.007799,-0.039944,-0.038874,0.039499,-0.000218,0.046368,-0.030843,0.009418,-0.072428,0.063824,-0.039979,0.072757,0.017932,-0.118080,-0.009488,0.053302,0.047233,-0.009238,-0.048531,-0.140429,-0.035572,-0.031019,0.111579,-0.021108,0.097586,0.012350,-0.103138,0.029381,-0.016728,0.056826,-0.062299,-0.058519,0.003137,0.045758,0.029546,0.016875,-0.030370,-0.025270,0.020465,-0.000821,-0.068582,-0.012410,-0.026679,0.010391,0.036548,-0.048302,-0.103336,-0.001936,0.012514,0.093384,-0.052939,0.055564,-0.000969,0.037329,0.038359,-0.022172,0.021504,0.030972,-0.069528,0.051821,-0.036822,0.066403,-0.067635,0.105199,-0.012795,0.039905,-0.029900,0.089825,0.088897,-0.068462,-0.022561,-0.041004,-0.009478,0.012923,0.000583,0.077102,0.075800,-0.037634,-0.061627,-0.058175,0.001183,-0.014197,0.031122,0.001023,0.045983,0.042381,0.024749,0.007053,-0.013212,-0.023512,-0.014206,0.017222,-0.002483,-0.000000,-0.035790,0.034639,0.074035,0.027615,-0.002734,-0.014896,0.006146,0.013610,-0.027678,0.036332,-0.015718,0.130646,-0.042904,-0.019252,-0.001102,0.000052,-0.011642,-0.031094,0.032752,-0.035811,-0.010594,0.085675,-0.079689,0.123787,0.034841,0.004799,-0.038599,0.027967,-0.051668,0.009226,-0.034071,-0.022908,-0.075022,-0.007196,-0.024285,0.017852,0.030036,0.028286,-0.008182,0.013725,0.033977,-0.052257,-0.044092,-0.053287,-0.065723,-0.034189,0.128235,-0.046929,0.025747,0.113104,0.013415,0.066437,-0.052692,0.045022,-0.082770,0.040931,-0.059406,-0.000100,-0.017637,-0.004956,0.042512,0.086699,0.031990,0.011893,0.051304,-0.010328,0.038181,-0.040173,0.029052,0.010776,0.016788,0.013758,-0.019817,0.008712,-0.091471,-0.014893,-0.000183,-0.035295,-0.024386,0.057742,0.059831,-0.014814,0.032973,0.070145,-0.056826,-0.002372,0.000401,-0.069107,0.009163,0.077528,-0.068236,-0.023833,-0.117618,-0.037573,-0.035768,-0.000000,-0.024447,-0.008226,0.085182,0.050307,0.108001,-0.052886,0.035617,0.114407,0.028632,-0.038544,0.092637,-0.002177,-0.045411,0.017306,0.043119,-0.008398,-0.002208,0.021208,-0.036208,-0.087290,0.047607,0.110115,0.105757,-0.010924,-0.046628,-0.026349,0.008151,0.009823,-0.010254,0.011626,-0.004921,0.000146,0.037613,0.008291,0.049214,0.030507,-0.002230,0.019257,0.012704,-0.052076,-0.121919,-0.027889,0.017359,0.010709,-0.093888,-0.016703,-0.141516,0.028443,0.054244,-0.089127,0.041542,-0.062899,0.001392,0.048151,0.098887,0.015561,-0.066413,-0.034972,-0.032337,0.006136,-0.019245,-0.135174,0.027040,0.001397
-0.072744,0.094764,-0.054506,0.011418,-0.031391,-0.032759,0.004025,-0.101820,0.002489,-0.025749,0.029648,0.015885,0.037178,-0.062342,0.003017,0.042963,-0.062055,0.043166,-0.067206,0.002392,-0.012328,0.037471,-0.070035,0.000082,0.024175,0.010425,0.060957,0.064970,0.044055,-0.069805,-0.014571,0.006671,0.047638,0.045571,0.062774,0.119347,0.018546,-0.016668,-0.081793,0.006775,-0.022451,-0.058425,-0.020459,0.038434,-0.028792,0.048751,-0.112594,-0.036472,-0.001008,-0.103147,-0.033258,0.039574,-0.021348,0.062516,0.064794,0.032470,-0.058986,-0.088014,0.031359,0.003216,-0.001661,0.062019,-0.048611,0.080880,0.044214,0.073100,-0.061143,0.001884,0.023933,0.035677,-0.053382,-0.037466,0.054117,0.040095,-0.016126,0.018213,-0.022197,0.063928,-0.008786,-0.010894,0.005600,-0.029731,-0.029329,0.022831,0.000014,0.056083,-0.093428,-0.032933,0.040227,0.016366,-0.047047,-0.009656,0.132223,0.028705,-0.082518,-0.022017,0.024067,-0.001153,-0.106311,0.103226,0.022036,0.044837,-0.017245,-0.011091,-0.059024,-0.068592,0.027853,0.019837,0.015403,-0.054372,-0.046835,-0.053603,-0.018526,-0.072873,-0.044358,-0.067692,-0.035843,-0.065580,0.087506,0.087164,0.012515,-0.058131,-0.118227,0.074775,0.004483,-0.055080,0.011074,-0.000000,0.011988,-0.040222,0.041601,-0.094841,-0.013913,0.034932,-0.094245,-0.065776,-0.061689,-0.043234,0.085282,-0.004789,-0.014338,0.028747,0.005900,-0.034448,0.041889,0.068789,0.005129,-0.030824,0.005286,0.032858,-0.053160,-0.014786,-0.024507,0.016820,-0.030933,-0.057068,0.018226,0.040600,-0.017644,-0.012598,-0.016660,0.005459,0.025570,0.012941,-0.049340,0.032045,0.009947,-0.005599,-0.036147,-0.084102,-0.062484,-0.034893,0.008066,0.014150,-0.016364,-0.014683,-0.006016,-0.064729,0.027009,0.075059,0.019585,0.015952,0.067441,-0.034994,0.043804,0.049645,-0.011670,-0.003379,-0.106691,0.055753,0.024442,0.000853,-0.001310,0.013362,-0.038577,0.039046,0.075316,0.028595,-0.076868,0.076601,-0.002456,0.119691,-0.133391,0.026748,-0.084777,0.012078,0.053174,0.085494,0.021539,0.043538,-0.019995,-0.040707,0.032513,-0.036839,-0.007883,-0.087910,-0.011639,-0.010262,-0.065042,0.029273,0.003549,-0.064172,-0.011485,-0.000000,0.020314,-0.013379,-0.065306,0.015187,-0.030924,0.083307,0.087255,0.045269,-0.005524,0.148501,0.056791,0.019202,0.008161,-0.076286,0.153443,0.098055,0.000595,0.105653,-0.022058,-0.035764,-0.026907,-0.027503,-0.007036,0.046944,-0.013179,-0.006052,0.053565,0.131207,-0.038858,-0.005005,0.101910,-0.017124,-0.065678,0.003586,-0.006669,-0.082194,-0.007675,0.011068,-0.001566,0.008489,0.040677,0.049349,-0.014131,0.058411,-0.060823,-0.016435,-0.036243,0.000585,0.032056,-0.118675,0.022825,-0.048171,0.028577,-0.006806,-0.007135,0.086417,-0.008800,0.069325,0.066749,-0.001172,-0.009952,-0.028804,-0.014305,0.005525,0.086023,-0.096729,-0.004337,0.039671,-0.073712,-0.042304,0.084148,-0.000616,-0.126922,-0.095159,-0.018958,0.017642,0.071462,0.012441,-0.080980,-0.052865,-0.010262,0.008124,-0.000130,0.034596,-0.013840,-0.016681,-0.054506,0.020303,-0.056266,0.031466,0.004032,0.023495,-0.064932,0.061950,0.009187,-0.000000,-0.044452,-0.072373,-0.018107,-0.035682,0.039342,-0.025268,-0.050446,-0.045504,-0.079260,-0.000821,0.079666,-0.015769,-0.049852,0.003105,-0.015324,-0.003707,0.105162,0.018159,-0.004914,-0.011421,0.085467,0.004969,0.067883,0.032306,-0.056951,0.043191,-0.056170,0.055650,0.016149,-0.059670,0.046666,0.053927,0.012196,-0.038253,0.024580,0.051520,0.009819,-0.001114,-0.031147,-0.012361,0.015299,-0.003970,0.019644,0.061177,-0.065658,-0.028504,0.074560,-0.115250,-0.028205,-0.133830,-0.033337,-0.005094,0.005858,-0.050017,0.012530,-0.018207,-0.001585,0.015508,-0.025639,0.040231,0.114799,0.032928,-0.012089,0.035947
-0.054166,-0.040947,0.014943,-0.075643,0.025285,-0.065319,-0.082362,-0.007533,0.001295,0.000852,-0.125694,0.030693,-0.038016,0.030148,0.081536,-0.005222,-0.064065,-0.048985,-0.015489,-0.014856,0.043880,-0.042568,-0.032555,-0.031186,-0.076868,0.017370,0.029575,-0.002684,0.070729,-0.033670,-0.042692,0.080604,0.077788,0.035935,-0.041375,0.044002,0.042083,0.009103,0.015259,0.001118,-0.044634,-0.123738,-0.024579,0.041509,0.071503,-0.030847,0.033784,-0.055671,-0.097814,-0.008803,-0.023607,-0.034002,0.020296,0.066116,0.033229,0.018813,0.031679,0.013947,-0.018623,-0.016342,-0.017590,0.021491,-0.155418,0.068920,0.047691,0.057117,-0.045615,0.017926,0.098284,-0.183658,-0.027188,-0.045068,-0.038586,0.022648,-0.029651,0.012531,-0.024282,0.076582,0.018390,-0.109260,0.044702,0.028312,-0.008156,0.011169,0.032577,0.034995,-0.035505,0.020808,-0.012158,0.060918,0.004154,-0.116769,0.083548,-0.048171,-0.050600,0.101755,0.006884,-0.043292,0.102397,0.007217,-0.014826,-0.076172,0.026778,0.007242,0.000145,0.007217,-0.033571,-0.018719,0.067928,-0.020405,-0.068556,0.015122,0.014280,0.014330,0.005150,-0.001918,-0.002050,0.018063,0.067409,0.087103,-0.006507,0.033546,-0.015227,-0.056050,0.047449,0.060705,-0.150653,-0.000000,0.017634,0.026516,0.022903,0.108903,-0.037380,-0.025603,0.002656,0.043514,0.011923,0.005177,0.049562,0.136136,-0.005571,0.001321,0.131198,-0.061611,-0.093471,0.027661,-0.050387,0.009499,0.015465,0.018474,-0.030310,0.010461,0.095784,0.024757,-0.012399,-0.023534,-0.001039,0.018398,0.063334,0.024293,-0.032574,0.011085,0.017696,0.063983,0.008687,-0.031599,0.073405,-0.060723,-0.027586,-0.062695,0.030334,-0.028439,0.053146,-0.029752,0.036727,-0.016673,0.024247,-0.021404,0.056745,0.009935,0.055757,-0.018005,0.133038,0.006273,-0.034962,-0.037352,-0.020942,0.039808,-0.011261,0.043549,-0.066639,-0.010686,-0.062286,0.035332,-0.018911,-0.043770,0.016610,-0.022853,-0.078314,0.062501,-0.087583,0.014308,-0.011019,-0.013426,-0.006981,0.051734,-0.035298,0.017744,-0.104880,0.086904,-0.007485,0.019087,0.004270,0.005411,0.091184,0.020565,-0.070720,-0.078830,-0.009114,-0.027578,-0.004925,0.101864,0.050831,0.000000,-0.070469,-0.055613,-0.031601,-0.023070,0.012804,0.010652,-0.023062,-0.064788,0.060039,0.057555,-0.045977,-0.001593,-0.030136,0.025999,-0.116755,-0.084740,-0.076729,-0.031638,0.049843,0.026724,-0.040897,0.051493,-0.090581,0.037168,0.012965,-0.059424,-0.038191,-0.058818,-0.012996,0.009651,-0.058144,-0.095074,-0.052329,0.004375,-0.097837,-0.019148,0.034755,-0.034635,0.086772,-0.032914,0.032104,-0.020551,0.011532,0.021857,-0.061830,-0.020021,-0.028876,0.054782,-0.025520,-0.063695,-0.022860,0.009167,-0.021950,-0.082957,0.020512,0.100317,0.091906,-0.051351,-0.063587,0.060857,0.004241,0.055996,0.053394,-0.052018,0.005667,0.002055,0.005805,0.035629,-0.054330,-0.030302,0.052177,-0.041294,-0.100783,0.045002,-0.016457,-0.014138,0.091538,-0.066236,-0.055876,0.015471,0.019257,-0.026062,0.013737,0.013495,-0.022226,0.048383,0.001878,-0.032631,0.072805,-0.042076,-0.082373,0.012014,0.006063,-0.009342,-0.039836,-0.000000,-0.018228,0.003215,0.060907,-0.014206,-0.015186,0.062296,-0.003811,-0.004582,-0.013907,0.014688,-0.051706,0.023380,-0.101931,-0.021337,0.121886,0.051315,0.059910,0.091259,-0.084768,0.013402,0.041013,0.044395,-0.043428,0.035480,0.045771,-0.003615,-0.024393,-0.040009,-0.024493,0.091670,0.023585,0.032051,0.046901,0.012319,0.024460,0.005535,-0.042020,-0.024412,0.082289,-0.038265,-0.024596,0.018718,0.038457,0.056641,0.070142,0.020693,-0.032483,0.029884,0.001515,-0.032891,-0.025739,-0.015051,-0.032393,-0.032371,0.057632,0.089662,0.029103,-0.076429,0.048453,-0.068649,0.051931,0.064133,0.069444,0.075478
-0.027036,-0.024745,0.006692,-0.014588,-0.016154,-0.029028,-0.120350,-0.004934,-0.053412,-0.007067,-0.022947,0.031331,-0.039043,0.017653,-0.003283,0.048834,-0.023896,0.024496,0.011457,-0.043185,0.018991,-0.022350,-0.023877,-0.056208,-0.010703,0.019953,0.012121,-0.008139,0.061166,-0.051475,0.004179,0.018522,0.093430,0.029235,0.015794,0.079398,-0.062538,-0.043151,-0.004787,-0.012067,0.030633,-0.068535,0.015682,0.051984,-0.011729,-0.008839,-0.041908,-0.066963,-0.016695,-0.072426,0.095844,-0.053581,-0.066022,0.028163,0.007552,0.004528,-0.044285,-0.055859,0.062772,-0.016470,0.043681,0.026715,-0.098787,0.044037,0.120445,-0.001734,0.003081,0.049196,-0.027100,0.009085,-0.044516,-0.057894,-0.030461,-0.038314,0.076844,0.054865,0.004617,0.036821,0.029574,-0.113816,-0.002631,0.071202,-0.047327,-0.007166,-0.047057,0.001013,-0.064451,0.007290,-0.016630,-0.019835,0.074299,-0.027429,0.010016,0.080821,-0.073368,0.088354,-0.049070,-0.094943,0.015016,0.021371,-0.019614,-0.000150,0.013580,-0.036213,-0.070045,-0.038256,0.044985,-0.023139,-0.028308,-0.038774,-0.054635,-0.035047,0.019619,-0.028444,0.012819,0.067662,-0.037711,-0.006123,0.100748,0.031368,-0.035088,-0.066539,-0.001693,-0.023696,-0.017446,0.050302,-0.042930,0.000000,-0.055174,0.051930,-0.049331,0.067474,-0.036118,-0.014420,0.013359,0.016527,-0.045422,0.057302,0.057184,0.067644,-0.072705,0.062731,0.003713,-0.141954,0.036445,0.121895,-0.014334,0.032059,0.028376,0.027968,0.008284,-0.027169,0.139544,-0.063196,0.061826,-0.014028,-0.088226,0.037887,-0.017601,0.019499,-0.052559,0.066956,-0.059159,0.085575,-0.074696,-0.025554,-0.056043,-0.024544,0.014925,-0.010535,-0.109139,-0.033153,0.046721,0.052108,0.012436,-0.079280,0.059703,-0.023545,0.037085,0.048249,-0.134891,-0.005275,0.053080,-0.003274,0.022624,-0.094832,0.033028,0.020815,-0.078596,0.010543,-0.099110,0.040707,-0.051891,0.054391,0.042796,0.025279,0.050392,0.011860,-0.046685,-0.032780,0.025613,-0.019085,-0.037666,0.017544,-0.046123,0.026617,0.061521,0.109903,-0.089017,0.110177,-0.052417,-0.005885,0.034499,-0.006330,0.040042,0.032741,-0.004704,0.018524,-0.034144,0.028069,0.038452,-0.009479,0.045289,-0.000000,0.012811,-0.003788,-0.084950,0.058519,-0.048543,0.025996,-0.054490,-0.045390,0.073496,0.024253,-0.016028,-0.003881,0.056408,-0.024132,-0.037071,-0.010334,-0.033233,-0.084071,0.031835,0.037424,0.009046,0.018312,-0.087944,0.037332,0.013886,0.022347,-0.093230,0.081313,-0.065646,0.037262,-0.003052,-0.111047,-0.084135,0.076899,-0.060751,-0.034428,0.021794,0.064986,-0.049752,0.031453,0.090297,-0.092438,-0.056815,-0.018861,-0.033491,0.037979,0.022646,-0.028276,0.014517,-0.067199,0.072288,0.052152,-0.053483,0.006870,0.008802,0.041717,0.059987,0.047864,0.014903,0.004544,0.058057,0.015883,0.088842,-0.004585,-0.034239,-0.052282,0.029319,-0.045574,-0.077808,0.056699,-0.037495,-0.008731,-0.050224,-0.006799,-0.051367,-0.022255,0.117088,-0.060741,0.027283,-0.020273,-0.098091,0.054468,-0.032555,0.096901,0.083882,-0.005175,0.002020,-0.063703,0.076619,0.029669,-0.043629,0.042701,-0.055630,-0.007114,-0.037259,-0.000000,-0.038216,-0.031807,-0.061164,-0.035540,0.046812,-0.069428,0.014400,0.106780,0.023912,0.049582,0.105853,-0.033771,0.022254,0.033877,0.042668,0.052999,0.045507,0.067660,-0.059002,-0.040823,-0.017898,0.056128,0.048776,-0.055351,0.004640,-0.034944,0.023469,0.045025,0.017527,0.003740,0.058345,0.009301,0.005805,-0.014364,0.126996,0.095448,0.029622,0.052196,0.077652,0.044692,-0.027094,0.003547,0.051899,0.050882,-0.028791,-0.009599,-0.142214,-0.004179,-0.005217,-0.051880,-0.058889,-0.022617,-0.040443,0.040539,0.103975,0.035347,-0.065489,-0.017642,-0.000948,0.024832,0.026152,-0.057484,-0.025427,0.012885
0.042929,0.056684,-0.003217,0.008251,0.048797,0.041168,0.074841,-0.012062,0.002649,0.000246,-0.090399,-0.054328,0.026790,0.033428,-0.059404,-0.040152,-0.046672,-0.088177,0.011888,0.006069,0.091641,0.103187,0.083313,-0.048349,0.052838,-0.072189,0.010523,-0.040699,0.004195,-0.054648,0.084687,-0.057229,0.026641,0.001747,-0.013666,0.018746,0.008975,-0.028972,-0.027790,0.119264,0.037502,-0.037921,-0.015671,-0.019413,0.038113,-0.005546,-0.036675,0.029656,0.112023,-0.037131,0.033543,0.024070,0.021828,0.046426,0.077364,0.040341,0.032465,-0.005301,-0.016864,0.050587,0.020769,-0.001343,-0.058002,-0.012436,0.028665,-0.063620,0.011241,-0.087684,-0.056632,0.127233,0.098861,-0.024866,0.000386,-0.088853,0.039895,0.027469,-0.052913,-0.021003,0.051766,0.036492,0.088579,-0.158136,-0.008543,0.074779,-0.033123,0.008398,0.041778,-0.007858,0.106583,0.007068,-0.092098,-0.004349,-0.016791,0.062428,-0.048665,-0.037367,0.005330,-0.009776,-0.060578,0.057125,-0.075970,0.107684,0.017378,-0.009596,-0.012105,-0.049462,0.037595,0.083241,-0.009356,-0.041215,-0.015181,0.009026,0.020749,0.071416,-0.057203,-0.007227,-0.045700,0.064888,0.027089,-0.049711,0.019362,0.031973,0.027080,0.022931,-0.060373,-0.055320,-0.001762,-0.000000,-0.030038,-0.038837,0.029985,-0.004899,0.031266,-0.007992,-0.016795,0.017415,-0.027003,-0.009024,-0.039460,-0.013606,-0.009954,-0.060042,0.052249,-0.024407,-0.068494,0.033952,-0.023524,0.090515,-0.000683,0.038240,-0.044649,-0.030801,0.085765,0.073841,0.084334,-0.011657,-0.115496,-0.002812,-0.031213,0.031770,-0.104759,-0.020725,-0.116574,-0.059007,-0.028797,-0.011059,-0.034205,0.015768,-0.059657,-0.025914,0.015701,0.009813,0.014072,0.040266,-0.018401,0.061041,-0.011968,-0.017419,0.037644,0.064959,0.009839,-0.062470,0.031253,-0.046024,0.000565,-0.065966,-0.014016,-0.094937,0.005421,-0.113059,-0.107652,0.022578,0.040728,0.032861,0.054690,-0.005891,0.110106,0.040613,-0.049691,0.000344,-0.040326,-0.043956,-0.046671,0.011026,0.033344,-0.004647,0.018479,-0.025005,-0.005649,0.008516,0.055157,-0.052706,0.078099,0.041491,-0.006570,-0.062297,-0.075584,-0.029194,-0.005311,0.060325,0.019634,-0.041593,-0.119670,0.000000,-0.012480,-0.029947,0.040788,0.085419,-0.014438,-0.050881,-0.008350,-0.019056,0.005725,0.086640,0.021055,-0.028833,-0.009860,0.009693,-0.010065,0.025670,0.100721,0.026870,-0.085418,-0.024919,0.015412,0.019197,-0.078496,0.039746,-0.056181,0.069120,0.047971,-0.014539,-0.030431,0.024257,0.054399,0.005510,0.006099,-0.051093,0.014985,-0.025198,-0.025993,0.059319,-0.014984,0.150657,0.057591,-0.030602,-0.050683,0.075737,0.026393,0.013275,0.053243,0.015047,-0.038945,0.069782,0.064511,0.085186,-0.141901,0.064510,0.036196,0.030833,-0.036853,0.006836,0.030655,-0.016834,-0.018974,0.103429,-0.003605,0.140381,0.098309,0.046458,-0.063161,0.045583,-0.032453,0.011374,-0.068977,0.020644,-0.011991,0.045389,0.028733,0.032488,0.002432,0.013526,-0.010989,0.003019,-0.036722,-0.145073,-0.032591,0.072888,0.043087,-0.020768,0.096605,-0.004540,0.072187,-0.010485,-0.003349,0.001589,0.026432,-0.026220,0.018807,-0.000000,-0.014120,0.029156,-0.044542,-0.058429,-0.089696,0.028147,-0.095196,-0.082502,0.021641,-0.026782,-0.006227,0.051579,0.006238,0.053829,-0.006509,-0.019012,0.043209,-0.048845,0.008987,0.065103,-0.104099,-0.031158,-0.067854,-0.019611,0.016520,-0.038908,0.016022,0.105579,0.019692,-0.002844,0.087609,-0.026408,0.000746,0.049481,-0.023822,-0.028563,-0.070964,-0.000096,0.075254,-0.071735,0.009189,0.065206,-0.069124,0.096254,-0.031933,0.006994,-0.003590,-0.055866,-0.046340,-0.008703,0.008044,0.058088,0.007133,0.046677,0.046102,0.021503,-0.052859,-0.041241,-0.016398,0.069020,-0.015174,-0.015355,0.029028,-0.026340
-0.031747,-0.004410,-0.015928,-0.053926,0.072961,-0.037506,-0.142869,0.014575,0.074907,0.060006,0.057313,0.114235,-0.028044,0.018158,0.062866,-0.008362,-0.090849,-0.052505,-0.008943,-0.018035,0.037504,-0.040225,-0.027866,-0.047368,-0.011647,-0.042516,-0.027308,-0.055137,0.060917,-0.055457,-0.004098,0.014249,0.038969,0.032522,-0.016842,0.002945,0.051291,-0.002319,0.031683,-0.021170,-0.010488,-0.091911,-0.040364,0.025664,0.011727,-0.019289,-0.007808,-0.077215,-0.084513,-0.012261,0.010656,-0.001385,-0.032713,0.007762,0.018288,0.072336,-0.038725,-0.063652,0.035475,0.048698,-0.031580,-0.031033,-0.070264,0.037358,0.062030,-0.029643,0.080358,-0.006100,-0.060023,0.001964,-0.020373,-0.023707,-0.060595,-0.054009,0.036746,0.028809,0.045415,0.069405,0.069990,-0.064490,0.059931,0.041647,-0.051472,-0.047573,-0.021605,0.030737,-0.006500,-0.040803,-0.003865,0.004532,0.050857,-0.035686,0.006298,0.065001,0.014196,0.101249,-0.005237,-0.019205,0.055433,-0.016248,-0.079678,0.031454,-0.005576,0.018894,-0.032176,-0.040672,0.020495,-0.011192,-0.020446,-0.027727,-0.025383,0.000811,0.058306,0.057766,0.026247,0.036395,-0.017151,0.052505,0.087519,0.033856,0.075222,0.083842,-0.051741,-0.005287,-0.004441,-0.007980,-0.032853,-0.000000,0.022820,-0.022372,-0.027254,0.018001,-0.112345,0.022878,-0.032547,-0.002868,0.043680,-0.111754,-0.049471,-0.053930,-0.025258,0.042241,0.051030,-0.132378,-0.013260,0.096765,0.050327,0.024439,0.025859,-0.072751,-0.012834,-0.018072,0.058845,0.006425,0.006576,-0.030893,-0.057322,0.023251,0.046002,0.017222,-0.124295,0.060221,-0.047813,0.046033,0.003201,0.057304,0.049715,-0.050744,-0.004836,0.035322,-0.057247,-0.017786,0.078552,0.008431,0.093054,-0.049522,-0.006913,-0.078602,0.009008,0.108039,-0.002344,-0.050658,0.070017,0.073637,0.030918,-0.074202,-0.039582,0.036457,-0.038407,0.070990,-0.068676,0.018813,-0.014792,0.072876,0.062856,-0.033896,-0.024887,-0.018965,-0.001468,0.007486,-0.018981,-0.035045,0.034085,0.007899,0.051705,0.046027,0.064957,0.019651,-0.042584,0.012020,-0.080802,-0.043951,0.073078,-0.054047,0.045423,0.018210,-0.001312,0.047984,-0.007781,-0.038887,0.015820,0.121891,0.047668,-0.000000,-0.022683,-0.066262,-0.005153,0.063586,-0.019065,-0.017726,-0.010501,0.082628,0.032867,0.045981,0.039846,-0.007829,-0.012912,0.045241,-0.010950,-0.022223,0.026369,-0.023103,0.068453,0.037750,0.088197,0.064262,-0.105601,0.005391,0.008530,0.003700,-0.096937,-0.033389,-0.079227,-0.050841,-0.022395,-0.098398,-0.076428,0.022338,-0.011166,-0.008545,-0.069172,-0.028821,-0.009106,0.029279,0.047787,0.019608,-0.062478,-0.037755,0.010070,-0.004369,0.095746,0.081462,-0.026952,0.012069,0.060608,0.092571,-0.058663,-0.054117,0.014413,0.007010,0.090530,-0.081532,-0.096988,0.035947,0.030267,0.013489,0.043708,-0.081157,0.016072,0.011443,0.046055,0.019777,-0.016433,0.046777,0.070341,-0.023050,-0.120612,-0.035350,-0.048195,0.000807,-0.003853,-0.130888,0.012847,-0.054223,-0.130897,-0.008885,-0.015886,-0.012133,-0.053618,-0.033948,0.041592,-0.107028,0.093224,-0.032947,-0.047006,-0.065038,-0.056788,0.030618,-0.039286,-0.000000,0.032417,-0.024457,0.062873,-0.005783,0.127033,-0.028308,0.076130,0.051989,-0.010276,-0.010110,0.050178,-0.000214,0.075265,0.022426,0.136867,0.079788,0.027309,0.027186,-0.032061,-0.090787,-0.015626,0.029301,0.060483,-0.010637,-0.089687,-0.015473,-0.006510,0.014279,-0.066416,0.039149,0.022940,0.013111,-0.018326,-0.050331,-0.022017,0.025141,-0.014102,0.003546,0.074210,0.043739,-0.012331,0.069797,-0.005009,0.062389,0.002850,-0.073223,-0.092123,-0.045937,-0.052946,-0.112824,0.033303,-0.022400,0.018200,-0.001336,0.127513,0.057181,-0.033378,-0.054660,-0.014711,0.007968,0.046494,-0.019527,0.061536,0.051662
-0.013300,-0.003368,0.063068,-0.008084,0.021288,0.022462,-0.176127,-0.066730,0.011759,-0.038058,-0.009713,0.043309,-0.071838,0.054082,-0.011036,0.016689,-0.050773,-0.076105,0.085634,-0.008169,0.090957,-0.067357,-0.023293,-0.014469,-0.043090,0.001118,-0.075366,-0.005685,0.009902,0.043750,-0.004033,0.003365,0.066457,0.026198,-0.004966,0.008203,0.009356,0.032290,0.007894,0.009388,-0.004131,-0.038403,0.011127,0.047583,-0.045081,0.008804,0.038739,-0.075459,-0.046737,0.073952,-0.043808,0.055803,0.041410,-0.024453,-0.015801,0.035716,-0.046170,-0.002984,0.007670,0.020551,0.002772,-0.013596,-0.073794,0.014381,-0.015547,-0.024879,-0.001872,0.019047,0.063605,-0.030703,-0.026506,0.036769,-0.014301,-0.097577,-0.029988,0.066537,0.097612,0.033003,0.029332,-0.191940,0.014752,0.017776,0.020452,-0.043537,-0.054783,0.030656,-0.048928,0.130889,-0.031382,-0.020136,-0.005100,-0.077159,-0.000193,0.030855,-0.054295,0.066590,-0.060273,-0.023071,0.065747,0.024884,-0.034305,0.008072,-0.013974,0.017396,0.010240,0.004150,-0.029858,0.045008,-0.050672,-0.017435,0.044700,-0.043847,0.056982,0.045603,-0.066613,-0.015427,-0.046250,-0.017550,0.043391,0.009161,0.106794,0.060525,0.057575,0.000349,-0.038123,0.010320,0.093085,-0.000000,-0.022916,-0.037045,-0.051657,0.015110,0.013234,-0.014448,-0.012613,-0.048293,0.027563,0.043065,0.022470,-0.062651,-0.003732,-0.061062,0.037172,-0.051203,-0.023443,0.042865,0.050241,-0.054016,-0.009927,-0.087997,-0.023285,-0.039494,0.103581,-0.005718,0.049211,0.003477,-0.023377,-0.007269,-0.014127,0.042200,-0.053747,-0.050189,0.052634,-0.009529,0.081180,0.034104,0.070488,-0.029744,-0.009720,-0.051744,-0.005969,0.003902,0.056082,-0.086102,0.102292,0.001710,-0.007740,0.042067,0.040383,0.007707,0.002447,-0.078749,0.009306,-0.034056,0.067822,-0.035624,-0.008456,0.026077,0.057389,-0.004393,-0.024237,-0.092165,-0.024948,0.086879,0.037027,0.034009,-0.018767,0.005989,0.067399,-0.053582,-0.043508,-0.052104,0.048273,-0.014248,0.105283,0.030303,-0.005339,0.091507,-0.100392,-0.053387,-0.019524,0.040801,0.068118,-0.075536,0.135722,0.072281,-0.034775,-0.074021,0.021725,0.002018,0.081950,0.073053,0.051392,-0.000000,-0.018108,0.048492,0.003238,0.035039,0.005071,-0.085043,-0.039688,0.154051,0.010501,-0.014421,-0.033317,0.055976,0.022923,0.005647,-0.039803,0.047162,0.050243,-0.040194,-0.038110,0.000203,0.087712,-0.015682,-0.120793,0.050656,0.026183,0.013412,0.127208,-0.068984,-0.059863,-0.033890,-0.104858,-0.112013,-0.048893,-0.027352,-0.012787,-0.045888,-0.006461,-0.067693,-0.065691,0.023252,0.032140,0.008478,-0.015808,0.042632,-0.056727,0.033666,0.038607,0.097883,0.033939,0.014601,-0.029235,0.023043,-0.048553,-0.124106,0.011298,0.033954,0.029989,-0.033225,-0.040223,-0.017154,-0.000671,0.015714,0.031413,-0.026442,0.006882,0.026019,-0.008940,-0.026969,-0.075463,0.039246,0.043839,0.014124,-0.115336,-0.022443,-0.031486,-0.004273,0.070435,0.026829,0.033711,-0.052099,-0.033869,-0.016862,-0.033516,-0.027497,-0.008104,-0.002868,0.008266,-0.030556,0.053321,-0.029211,-0.000611,-0.015202,-0.032261,0.023826,-0.058534,-0.000000,0.047474,0.129206,0.046658,-0.034155,0.044746,0.027356,0.119181,0.015387,0.011617,-0.101159,0.118522,0.028916,0.085896,-0.034479,0.057537,0.041348,-0.047947,-0.048082,-0.055557,-0.044207,0.003171,-0.006969,0.073831,0.012663,-0.110807,-0.023521,0.013902,0.007543,0.022881,-0.023730,0.045480,0.033030,-0.005201,-0.018105,0.037519,-0.016319,-0.114864,0.066528,-0.003278,0.050042,-0.041818,0.023582,-0.052308,0.074624,-0.033611,-0.028621,-0.076285,0.010204,-0.004591,-0.094437,0.004495,0.008937,-0.085860,-0.004068,0.127320,0.037402,0.032363,-0.057301,-0.023470,-0.083168,-0.018855,0.013230,-0.040747,0.047149
