e0,e1,e2,e3,e4,e5,e6,e7,e8,e9,e10,e11,e12,e13,e14,e15,e16,e17,e18,e19,e20,e21,e22,e23,e24,e25,e26,e27,e28,e29,e30,e31,e32,e33,e34,e35,e36,e37,e38,e39,e40,e41,e42,e43,e44,e45,e46,e47,e48,e49,e50,e51,e52,e53,e54,e55,e56,e57,e58,e59,e60,e61,e62,e63,e64,e65,e66,e67,e68,e69,e70,e71,e72,e73,e74,e75,e76,e77,e78,e79,e80,e81,e82,e83,e84,e85,e86,e87,e88,e89,e90,e91,e92,e93,e94,e95,e96,e97,e98,e99,e100,e101,e102,e103,e104,e105,e106,e107,e108,e109,e110,e111,e112,e113,e114,e115,e116,e117,e118,e119,e120,e121,e122,e123,e124,e125,e126,e127,e128,e129,e130,e131,e132,e133,e134,e135,e136,e137,e138,e139,e140,e141,e142,e143,e144,e145,e146,e147,e148,e149,e150,e151,e152,e153,e154,e155,e156,e157,e158,e159,e160,e161,e162,e163,e164,e165,e166,e167,e168,e169,e170,e171,e172,e173,e174,e175,e176,e177,e178,e179,e180,e181,e182,e183,e184,e185,e186,e187,e188,e189,e190,e191,e192,e193,e194,e195,e196,e197,e198,e199,e200,e201,e202,e203,e204,e205,e206,e207,e208,e209,e210,e211,e212,e213,e214,e215,e216,e217,e218,e219,e220,e221,e222,e223,e224,e225,e226,e227,e228,e229,e230,e231,e232,e233,e234,e235,e236,e237,e238,e239,e240,e241,e242,e243,e244,e245,e246,e247,e248,e249,e250,e251,e252,e253,e254,e255,e256,e257,e258,e259,e260,e261,e262,e263,e264,e265,e266,e267,e268,e269,e270,e271,e272,e273,e274,e275,e276,e277,e278,e279,e280,e281,e282,e283,e284,e285,e286,e287,e288,e289,e290,e291,e292,e293,e294,e295,e296,e297,e298,e299,e300,e301,e302,e303,e304,e305,e306,e307,e308,e309,e310,e311,e312,e313,e314,e315,e316,e317,e318,e319,e320,e321,e322,e323,e324,e325,e326,e327,e328,e329,e330,e331,e332,e333,e334,e335,e336,e337,e338,e339,e340,e341,e342,e343,e344,e345,e346,e347,e348,e349,e350,e351,e352,e353,e354,e355,e356,e357,e358,e359,e360,e361,e362,e363,e364,e365,e366,e367,e368,e369,e370,e371,e372,e373,e374,e375,e376,e377,e378,e379,e380,e381,e382,e383
-0.070711,0.128776,-0.046143,0.023526,-0.021199,-0.027963,0.018049,-0.057594,0.014570,-0.006939,0.028091,-0.050168,0.037535,-0.078356,-0.043589,0.047874,-0.037447,0.018805,-0.065263,-0.011134,0.011109,0.037841,-0.054665,0.007272,0.031128,0.029830,0.035082,0.055803,0.048408,-0.070824,-0.000956,0.018611,0.023137,0.035287,0.048876,0.118322,-0.002075,-0.032049,-0.087233,-0.019446,-0.005985,-0.072219,-0.017971,0.035875,-0.009751,0.048064,-0.105914,-0.012200,0.026086,-0.090667,-0.039309,0.038763,-0.065776,0.059894,0.054865,0.019528,-0.080677,-0.085436,0.031693,-0.005904,0.012728,0.042991,-0.037149,0.042959,0.006492,0.056105,-0.032058,0.020339,-0.006175,0.058230,-0.045585,-0.027181,0.024862,0.062497,-0.030281,-0.012237,-0.026624,0.060845,0.025865,-0.011813,0.025172,-0.010111,-0.057795,0.028354,0.008380,0.079872,-0.106783,-0.040568,0.050007,0.028007,-0.057224,-0.004951,0.105574,0.037587,-0.053654,-0.001074,-0.009427,0.004392,-0.106440,0.130589,0.026869,0.061714,-0.008207,0.021214,-0.080685,-0.055825,0.030503,-0.002044,0.018821,-0.043343,-0.049384,-0.042743,-0.039865,-0.031052,-0.028560,-0.051691,-0.026565,-0.064862,0.059679,0.096409,-0.000949,-0.054660,-0.145274,0.063960,-0.017807,-0.028232,0.011873,-0.000000,-0.014866,-0.019200,0.056342,-0.071838,-0.000890,0.026581,-0.096416,-0.070258,-0.075416,-0.011775,0.099312,-0.021573,-0.039559,0.024836,0.009380,-0.067800,0.062155,0.070926,-0.008985,0.000417,0.006322,0.036615,-0.056462,-0.020589,-0.048464,0.008063,-0.047651,-0.048222,-0.003533,0.032865,0.004579,-0.007049,0.015988,0.001571,0.013640,-0.001470,-0.045235,0.020798,-0.005550,-0.022374,-0.045765,-0.066781,-0.064014,-0.031102,0.046553,0.040254,-0.012513,0.012571,0.004460,-0.065143,0.025903,0.088585,0.026316,0.035523,0.046513,-0.050452,0.053270,0.029353,-0.033861,-0.026506,-0.069864,0.043703,0.025507,0.009131,-0.001426,0.002635,-0.045327,0.032578,0.034867,0.028852,-0.082206,0.084361,0.006645,0.113118,-0.138059,0.008465,-0.092117,0.024603,0.046577,0.117915,0.013791,0.036695,-0.060503,-0.061664,0.033410,-0.038466,-0.030686,-0.093441,-0.017129,0.012018,-0.059988,0.050176,0.000162,-0.049122,0.047662,-0.000000,0.065026,0.018658,-0.059761,0.034917,-0.002747,0.073788,0.068159,0.045631,0.030184,0.127084,0.017240,0.020230,0.040810,-0.072025,0.163952,0.121121,0.013480,0.099389,-0.021214,-0.026842,0.009045,-0.006411,-0.003401,0.090264,-0.020996,-0.018495,0.040100,0.138130,-0.032727,-0.007523,0.082818,-0.014235,-0.056900,0.025915,0.010023,-0.058990,-0.034737,0.006526,0.006498,-0.024727,0.074547,0.055901,-0.016410,0.017122,-0.048125,-0.003193,-0.069248,0.011857,0.044160,-0.106240,0.036349,-0.060910,-0.000879,0.007245,-0.018047,0.088691,-0.015263,0.048757,0.060594,0.019545,-0.022331,-0.025245,-0.036006,0.049134,0.033329,-0.106827,-0.014024,0.048241,-0.072866,-0.028290,0.063549,0.034969,-0.128729,-0.091490,-0.049190,0.032921,0.028891,0.023953,-0.054924,-0.034092,-0.015843,0.020991,-0.013151,0.037744,-0.040593,0.020891,-0.031479,0.015587,-0.060694,0.004928,-0.008904,0.013528,-0.076530,0.081972,0.021521,-0.000000,-0.042057,-0.096086,-0.054978,-0.063071,0.081055,-0.028411,-0.066266,-0.036497,-0.066674,0.008660,0.074769,-0.016353,-0.048167,0.009142,-0.002393,0.006083,0.073432,0.035231,0.019919,-0.012059,0.053237,-0.028065,0.087609,-0.002119,-0.061949,0.030780,-0.051466,0.061239,0.024372,-0.033826,0.050891,0.037086,-0.017968,-0.031057,0.006910,0.080241,0.026459,-0.013337,0.000810,-0.018369,0.011180,0.024627,0.034784,0.025784,-0.070075,-0.038274,0.061797,-0.085677,-0.059253,-0.096414,-0.031668,-0.019494,0.009105,-0.050312,0.038556,-0.006547,-0.016972,0.023033,-0.049162,0.058378,0.121016,0.047063,-0.048720,0.043430
0.095140,-0.055296,0.009282,-0.001020,0.060876,-0.014377,-0.056468,0.027985,-0.029020,0.038562,0.010088,-0.014406,-0.030679,0.001917,0.059426,0.017662,-0.021493,-0.131403,-0.033400,-0.004414,-0.006032,-0.019033,0.058716,-0.009845,0.028298,-0.022346,-0.039977,-0.000666,-0.027655,0.038961,-0.093597,0.018263,0.086436,-0.076025,0.029479,-0.040515,-0.018347,0.018073,-0.005592,0.044405,0.033947,-0.000008,-0.020606,0.033774,-0.074486,0.082102,0.033998,0.050266,-0.074860,0.112226,-0.041855,0.107460,0.016344,0.056291,-0.005190,-0.037847,-0.056838,-0.016654,0.013743,0.009162,-0.014076,0.024332,-0.011016,0.049165,0.034891,0.004135,-0.016921,0.007913,-0.066269,0.006506,-0.019940,0.021717,-0.044015,-0.028422,0.051925,-0.013980,0.066829,0.027180,0.112119,-0.075197,0.058963,-0.003672,0.067059,-0.079732,-0.009881,0.068738,-0.028165,0.005950,-0.060346,0.050996,-0.025650,-0.056294,0.026978,0.034979,0.017051,0.134780,-0.035820,-0.004232,0.035482,0.032985,-0.100061,0.020322,-0.001615,-0.067149,-0.017200,-0.025112,0.026683,-0.026596,0.006447,0.036627,0.055615,-0.007480,0.026577,0.096930,-0.010119,-0.112415,0.031996,-0.021451,0.022515,-0.010519,-0.002421,0.122368,0.000723,0.091019,0.003254,-0.011956,-0.047406,-0.000000,0.099441,0.029651,0.050981,0.008240,-0.068262,-0.026239,-0.071565,-0.006023,0.063785,-0.006747,0.002184,-0.113878,0.011494,0.020038,0.154654,0.045714,-0.061997,0.069081,0.018313,-0.037038,-0.015046,-0.053752,-0.013420,0.015635,-0.007063,0.007866,0.014660,-0.004091,-0.026176,-0.041662,0.044584,0.039484,-0.048782,-0.067354,-0.005318,0.008180,0.073895,0.051896,0.020830,0.059824,-0.085886,-0.012878,0.023016,-0.012558,0.006241,-0.086452,0.052650,-0.040508,-0.069485,0.056467,-0.055918,0.019194,0.005099,-0.001309,-0.048371,0.004416,0.019512,0.023861,0.050854,0.058114,0.029613,0.004758,0.018536,-0.024868,-0.072596,0.057234,0.052711,0.015271,-0.101232,0.060345,0.078670,-0.059754,-0.035854,-0.007070,0.038915,0.079464,0.085029,-0.014988,0.129571,0.043146,-0.069016,-0.020672,-0.016817,-0.095361,0.003624,-0.000225,0.083269,0.082242,-0.011902,-0.011951,0.044742,-0.030352,0.000871,0.003653,-0.020136,0.000000,-0.074974,0.069599,0.062162,0.096218,-0.023919,-0.035220,0.013034,0.082755,0.035884,0.076397,0.038656,0.078992,0.017631,0.071614,-0.043002,0.009378,0.007034,-0.021566,-0.003054,-0.056884,0.022850,0.026056,-0.029115,0.126154,-0.015288,-0.025332,-0.080342,-0.038254,-0.045783,-0.051916,-0.046462,-0.052389,-0.094579,-0.076187,-0.023383,-0.000034,-0.043693,-0.018286,-0.003487,0.035076,-0.017312,-0.042972,-0.083545,0.038619,-0.006600,0.001332,0.052919,0.032309,0.038723,0.005656,0.023223,0.015821,-0.037426,0.037680,-0.061102,0.096108,-0.005290,-0.033829,-0.086427,-0.029207,0.022463,0.021029,0.026847,-0.066621,-0.013237,-0.044690,-0.030247,-0.031852,-0.001724,-0.004243,0.076518,-0.049128,-0.030996,0.002151,-0.045541,0.040773,0.084817,-0.085030,0.048064,0.046320,-0.086171,0.004867,-0.021214,-0.046931,-0.069861,-0.086932,0.046267,-0.081701,-0.044665,0.029283,-0.104705,-0.069968,-0.042210,-0.053547,-0.058401,-0.000000,0.014593,0.108586,0.039473,0.047991,0.029300,0.026654,0.098924,0.009515,0.021676,0.012566,0.075519,-0.006544,-0.049674,-0.056364,0.022103,0.027044,-0.083018,0.083217,-0.036798,-0.028314,0.025866,0.078379,-0.051835,-0.025693,-0.019367,0.007928,-0.025325,0.054983,-0.042947,-0.091010,0.031140,-0.039843,0.001934,-0.082242,-0.057194,-0.038214,-0.080069,0.015800,-0.003328,-0.056109,-0.038256,0.000465,0.004848,0.068904,-0.036527,-0.046094,-0.061571,-0.002357,-0.011540,-0.127267,0.043659,-0.008332,0.006742,0.051751,0.062684,0.017318,-0.023963,0.002433,-0.114383,-0.124262,0.058227,-0.071105,-0.019093,0.052408
0.006359,0.015966,-0.023823,0.017408,0.043947,-0.001821,-0.048152,-0.007242,-0.053454,0.002306,-0.023794,-0.008653,-0.026666,0.075644,-0.059593,-0.047066,0.040111,-0.105614,0.053323,0.009531,-0.020424,0.088486,0.105980,0.011677,0.051960,0.036001,-0.050010,0.001649,-0.033084,-0.017845,0.022848,0.063800,-0.019230,-0.009229,-0.015180,0.011854,0.043021,-0.005004,0.038002,-0.008831,0.009600,-0.054457,0.067450,0.021566,0.001677,0.007351,-0.087515,-0.043619,-0.109584,0.044935,-0.045670,0.021879,0.124322,-0.034184,-0.063265,0.055800,-0.033206,-0.039434,0.074561,-0.009067,-0.057661,0.018620,-0.076045,0.100200,0.014149,0.013318,-0.026513,-0.097408,-0.013676,0.023136,-0.026805,0.051140,0.057809,0.001037,0.009227,-0.032433,-0.006640,0.010132,0.075513,-0.066006,0.034994,0.003683,0.022816,-0.022947,0.096336,0.012492,0.041776,-0.016086,-0.112929,0.052095,0.040346,0.008771,-0.008316,0.074579,0.071427,0.083650,-0.043536,-0.001836,0.011550,0.039240,-0.066354,0.093084,-0.032521,-0.050458,0.001162,-0.002702,0.015997,-0.013595,0.007238,0.003367,-0.005707,0.006882,0.018972,0.073976,0.059244,-0.056714,0.014346,0.057918,0.016792,0.010706,0.045764,0.006607,0.069092,0.017237,0.038406,-0.027805,-0.006808,-0.000000,0.009450,0.030850,0.029233,0.102308,-0.089218,-0.001575,-0.102274,0.047628,0.066656,-0.043375,0.011026,0.063237,0.026066,-0.026097,0.037187,0.090995,-0.021416,0.097010,-0.078233,0.014251,0.024247,-0.013031,0.040319,-0.100593,0.063539,-0.023303,0.028066,0.054027,-0.040171,0.001659,-0.013033,0.035615,-0.093179,-0.010779,-0.024729,0.007216,0.032268,0.045405,-0.040596,-0.015915,-0.013662,0.007516,0.031054,0.037072,0.019318,-0.026262,-0.039691,-0.018365,-0.084108,0.065239,-0.031145,-0.024544,0.014417,-0.010204,-0.027873,0.042374,-0.030954,0.048050,-0.019940,0.017216,0.066202,-0.001750,-0.070099,-0.106601,-0.065499,0.068366,-0.053270,0.026530,-0.050080,0.012627,-0.060743,0.011786,-0.016031,0.011260,-0.023579,0.008856,0.006670,0.012045,0.040740,-0.028115,0.024570,-0.002721,0.042486,-0.095579,-0.035272,-0.058626,0.079916,0.030384,-0.038585,0.006921,-0.014277,0.003401,-0.004070,0.018798,-0.052669,0.000000,-0.140109,0.010904,-0.000266,0.125748,-0.019441,-0.052189,0.021701,-0.001303,0.008593,0.051227,0.025877,0.028397,-0.116389,0.060838,0.024634,0.011864,-0.027023,-0.080310,0.016827,-0.020397,0.001055,0.086441,-0.015759,0.014260,-0.031203,0.100735,0.026013,-0.110679,-0.060958,-0.043553,-0.005472,-0.071139,-0.095386,0.017450,0.010696,-0.010124,0.000370,-0.088486,0.049451,0.029750,-0.003261,0.070789,-0.186233,0.015282,0.001177,-0.018288,0.112952,0.066559,-0.000920,0.054751,0.033320,0.027335,-0.144220,-0.033732,-0.045935,-0.017367,0.020213,-0.104250,0.001240,0.040905,-0.028051,0.086913,-0.009511,0.013836,0.052511,-0.003595,0.022302,-0.005091,-0.008042,0.064880,-0.041289,-0.069478,-0.079819,-0.031237,0.052509,-0.024070,0.045434,-0.038954,-0.038600,-0.014215,0.046810,-0.102033,0.019948,-0.032081,0.001324,-0.030047,0.018410,-0.119606,0.044104,0.067883,-0.037392,0.014223,-0.011456,-0.091107,-0.013131,-0.000000,0.034502,0.019570,0.024312,0.097352,-0.011872,-0.002139,0.002853,-0.023019,-0.058310,-0.049444,0.058328,-0.004441,-0.015377,0.017778,0.060362,-0.034275,0.037719,0.071001,-0.083526,0.017280,0.063801,0.102587,-0.031056,0.021935,-0.022026,0.017846,-0.107523,0.061782,-0.090966,0.001384,0.027373,0.039623,-0.027079,-0.040279,0.017549,0.027148,-0.013763,0.042347,0.092885,0.043693,-0.084788,-0.006399,0.005819,0.146184,0.039682,-0.075233,-0.051204,0.057638,0.008906,-0.077572,0.020347,0.007531,-0.027013,0.038431,0.093082,-0.062268,0.010961,-0.064953,-0.103791,0.015302,0.097258,-0.011128,-0.061078,0.039755
0.035053,-0.014164,0.000326,-0.015520,0.015130,-0.028562,-0.078307,0.069624,0.037919,-0.033779,-0.053924,0.117018,-0.005533,-0.036844,0.077065,-0.066362,-0.028292,-0.064969,-0.037797,0.055309,-0.023581,0.063113,0.000918,0.019114,0.114108,-0.060521,-0.075790,0.032628,-0.009774,0.050051,-0.025060,0.052903,0.101392,-0.060373,0.006876,-0.061350,0.029911,0.027416,-0.025421,0.031436,-0.042957,-0.003049,0.070617,0.012903,-0.114127,0.018510,-0.047368,0.033140,-0.048298,0.031023,0.003518,0.148158,-0.041399,0.014477,0.011615,0.043300,-0.088439,0.009571,-0.017331,-0.013636,-0.057590,0.017385,0.015607,-0.031317,0.022723,-0.069483,0.005495,-0.091340,-0.047682,0.075834,0.046965,-0.055764,-0.026835,0.031486,0.036026,0.043303,-0.070788,0.025433,0.074745,-0.021074,0.045033,-0.027698,-0.007453,-0.008830,-0.052868,0.018599,0.054173,0.044310,-0.032357,-0.026742,0.064475,-0.069489,0.042386,0.030443,0.066690,-0.014993,-0.041034,-0.001275,0.006574,0.105333,0.034958,0.096385,-0.057922,-0.067025,0.029025,0.017720,0.057049,-0.028599,-0.029389,0.009617,0.039807,-0.022182,-0.032406,0.005602,-0.043868,-0.124342,-0.004015,0.041801,0.012589,0.051826,0.031034,0.041554,-0.074555,0.040052,-0.037503,0.041432,0.038959,-0.000000,0.071917,0.011153,0.069426,0.002637,-0.058896,0.004696,-0.052158,0.017520,-0.028608,0.004708,-0.001572,0.060814,0.012782,-0.077980,0.081317,-0.032818,-0.059117,0.053949,0.086664,-0.014172,0.012173,-0.095059,-0.014328,-0.022083,0.022467,0.033034,-0.084777,0.041960,-0.061659,-0.040947,0.066292,0.017958,0.025551,-0.006978,-0.016116,-0.018784,0.103323,0.049682,0.038182,-0.005289,-0.049218,0.045328,-0.004997,-0.073743,0.028989,0.012007,0.032192,-0.036427,-0.074161,-0.035330,-0.032421,-0.010169,-0.041534,-0.036954,-0.081424,0.010245,0.097573,0.027910,-0.039142,0.003638,0.013156,0.086186,0.022956,-0.099253,-0.106985,0.032809,0.049049,0.021749,-0.079596,0.048437,-0.030578,-0.040676,-0.065124,0.013818,0.070772,0.027258,0.163065,-0.037889,0.073093,-0.057133,-0.007820,-0.108480,0.044553,-0.049591,-0.004755,0.035083,0.025143,0.046905,-0.046718,-0.022760,0.000215,-0.049001,-0.064419,-0.046069,-0.008297,0.000000,-0.129192,0.061078,-0.025759,0.087205,-0.059382,-0.029377,0.041910,0.043544,-0.010176,-0.012818,0.098695,0.003681,0.039020,-0.004159,0.002301,-0.020657,0.036776,0.014517,-0.012897,-0.005128,0.086965,0.066079,-0.033197,0.051019,0.007019,0.017238,-0.052391,-0.007076,0.015922,-0.052985,-0.029984,-0.098918,0.018922,0.040814,-0.030764,-0.018453,0.023188,0.015859,-0.011950,-0.059746,-0.035969,0.017999,-0.074665,0.031752,0.024202,0.028708,0.023219,0.054454,0.015090,0.026553,-0.039457,0.044176,-0.136945,0.112893,-0.069565,0.063711,0.011928,0.011118,-0.010203,0.044019,-0.059635,0.016462,0.008608,-0.049115,0.035908,0.058165,-0.011750,-0.036173,-0.008062,-0.048260,0.007637,0.053120,0.038308,0.028618,-0.026583,0.043686,-0.049956,-0.024529,-0.029269,0.049880,-0.005783,0.048009,-0.069329,0.007796,0.002373,0.093282,0.027562,-0.013674,-0.013330,0.052936,-0.049879,0.020410,-0.021580,-0.038959,-0.066639,-0.000000,0.021569,0.037705,-0.025656,-0.031609,0.031558,-0.003687,0.033918,-0.001927,0.059106,-0.027145,0.028326,-0.071022,-0.067536,-0.009586,0.047452,0.052206,-0.043607,-0.021285,-0.047599,-0.004868,-0.093139,0.076890,-0.034508,-0.048743,0.044906,0.027501,-0.064508,0.067163,-0.058592,-0.066097,0.073897,0.023343,-0.024429,-0.064882,-0.079747,0.028889,-0.016180,0.012528,0.031051,-0.099654,-0.075170,-0.073461,-0.044797,0.049551,0.027402,-0.090640,-0.077452,0.015255,-0.041126,-0.127344,0.053303,0.062801,-0.009550,0.033050,0.108035,-0.019412,-0.060012,-0.021562,-0.158424,-0.016733,0.029807,-0.058964,-0.020115,0.060779
0.034476,0.015681,0.097641,0.096967,0.059085,-0.081357,0.031638,-0.047521,-0.005265,-0.047991,0.027883,0.018723,0.064242,0.008974,0.071090,0.010274,-0.014138,-0.101557,-0.005818,-0.040828,-0.020651,0.039845,-0.005753,-0.006628,-0.008909,0.029818,0.023551,0.046054,0.022746,0.003156,0.006377,0.059460,0.038119,-0.003733,0.072790,-0.004936,0.018654,-0.013201,0.032313,-0.003513,0.020226,-0.065091,0.065634,0.046886,-0.031178,0.016220,0.022521,-0.023087,-0.002510,-0.026574,0.054102,-0.009531,0.011828,-0.095182,-0.018120,0.047772,-0.034154,-0.069495,0.097222,-0.074519,-0.025977,0.025577,0.054438,0.032795,-0.002892,-0.071374,-0.040687,-0.080271,0.083930,-0.012972,0.049400,0.074384,0.051723,-0.012276,-0.097659,0.029157,0.026373,-0.018759,0.036744,-0.055366,0.024204,-0.002921,-0.017230,0.030729,0.060584,0.007509,0.017448,-0.000686,-0.104785,-0.013028,-0.006487,-0.012745,-0.044107,0.059635,-0.021906,-0.018213,0.029203,0.046913,-0.031846,0.069674,-0.035041,0.005580,-0.060678,-0.046229,0.034184,0.025365,0.036500,0.055353,0.016937,-0.007074,0.065597,-0.011607,0.020110,0.024023,-0.006064,-0.070057,0.017442,-0.031560,-0.036107,-0.020392,0.015126,-0.011142,-0.052994,0.054917,0.044590,-0.011206,0.047841,-0.000000,0.101380,0.046880,-0.030163,-0.010144,0.087374,0.051852,0.016735,-0.020111,-0.061518,-0.066709,0.044071,0.016195,0.018723,-0.017677,0.061650,-0.018516,0.073100,-0.011129,-0.022240,-0.033427,-0.110547,-0.016889,-0.012668,-0.034551,-0.081188,0.123913,-0.021108,0.009821,-0.024056,0.008114,0.001183,0.073839,0.065058,0.103029,-0.024801,0.040824,0.021665,-0.041343,-0.026964,0.035404,-0.012539,0.053635,-0.047752,-0.003987,0.059062,0.043774,-0.014748,0.037599,-0.016509,0.037987,-0.036449,0.022952,0.019133,-0.082551,-0.095508,0.113751,-0.010198,-0.034605,0.005450,0.029482,-0.022529,0.054731,-0.016599,-0.068190,-0.046049,-0.048374,0.018327,0.051307,-0.090532,0.057379,-0.017728,0.073593,0.004232,-0.019023,0.004975,0.008701,0.051659,0.035763,-0.014419,-0.095868,-0.000443,-0.047881,-0.005261,-0.082125,0.066964,0.020047,0.031426,0.027016,-0.108561,-0.037022,0.087479,0.039206,-0.021955,-0.057819,-0.153037,0.000000,-0.033437,0.044964,-0.061963,-0.010323,0.022868,-0.019742,0.018613,-0.025916,-0.071742,0.061813,0.123442,0.007156,-0.061963,-0.057257,-0.021772,-0.005722,0.087742,0.057618,0.020407,-0.015403,-0.045477,0.022674,-0.014111,0.026877,-0.012033,0.110036,-0.020182,-0.066886,-0.170341,0.020827,-0.064910,0.039693,-0.069795,-0.023639,0.021446,0.049478,-0.000825,-0.125578,-0.020381,0.027245,-0.025058,-0.054682,0.011105,0.115547,-0.035075,0.008759,0.004311,0.007823,-0.023322,-0.021273,-0.007951,-0.036403,-0.147760,0.035266,-0.104944,0.005892,0.071477,0.041344,0.082665,0.019168,-0.044705,0.043023,-0.084019,-0.044177,0.059556,-0.011125,0.024441,0.020266,0.058995,0.061511,0.073961,0.006919,-0.014011,0.003646,0.048717,0.070273,-0.086887,0.015824,-0.075592,0.062537,0.013723,-0.056177,-0.029360,0.062723,0.061066,0.016439,0.028264,-0.102370,-0.066713,-0.016108,-0.026523,0.047040,0.018651,-0.048647,-0.029415,-0.000000,-0.030121,0.018236,-0.016319,-0.004634,0.024750,-0.084153,0.038430,0.114280,0.037216,-0.009617,-0.106655,-0.038025,-0.013078,0.014362,0.149046,0.013613,-0.036921,-0.016163,-0.067304,-0.001676,-0.074914,0.060122,-0.006277,0.014258,-0.034076,0.021018,-0.028855,0.040455,0.024420,-0.022296,0.088001,-0.026977,-0.012613,-0.033231,0.044825,-0.027628,-0.084190,0.004107,0.008566,0.026791,-0.143383,0.053473,0.034261,0.015895,0.017441,0.024895,0.008195,0.067537,0.016136,-0.075404,0.009158,-0.009893,-0.059518,0.039046,-0.037601,-0.162782,0.036498,-0.017347,0.002346,-0.076364,0.027714,0.013876,-0.081636,0.035086
0.028664,0.017655,-0.005122,-0.005344,0.015948,0.031920,-0.068218,-0.023240,-0.109120,-0.004354,-0.055206,0.126179,0.036932,-0.005778,0.098941,-0.043725,0.031460,-0.027322,0.077598,-0.048093,-0.054922,0.020499,0.051577,0.049415,0.112873,0.009597,0.030194,0.049036,-0.017329,0.014863,-0.001963,-0.029591,0.056812,0.025213,0.049954,0.103046,-0.018934,-0.002743,0.031393,-0.027488,0.102881,0.020790,0.100998,-0.025820,-0.012613,-0.066159,-0.022792,-0.064615,0.008829,-0.003016,0.062947,0.004213,0.013783,-0.048416,0.019221,0.132755,-0.064752,-0.068432,0.080383,-0.030074,0.061569,-0.056225,-0.024336,0.017765,0.010980,-0.061060,0.017729,0.006631,0.076263,-0.011643,-0.008084,-0.018677,0.030182,-0.008333,0.058524,0.073862,-0.075247,0.011995,0.031875,-0.045022,0.053880,-0.000921,0.019999,0.094553,-0.064913,0.015160,0.010300,-0.089339,0.012527,0.013471,0.061691,-0.017001,0.021297,-0.103204,-0.004598,-0.071379,-0.034249,-0.075253,0.008190,0.004910,-0.062392,0.070048,0.004825,-0.081726,0.034817,-0.022251,0.029407,0.021343,-0.083091,0.060222,-0.081424,0.052519,0.013013,0.023258,-0.047511,-0.018960,0.033204,-0.035819,0.036341,-0.032806,0.061912,-0.003991,0.006839,-0.022408,0.000955,-0.020073,0.041365,-0.000000,-0.080607,0.045881,0.037290,0.011193,-0.010421,0.005808,-0.044550,0.007857,0.065269,0.003653,0.002235,0.026683,0.025411,-0.063147,0.029848,0.053914,-0.051781,0.044740,-0.042606,0.005273,-0.015864,0.051645,0.000568,-0.025661,-0.042700,-0.027347,0.016051,-0.006919,0.032765,-0.017092,0.066065,0.021311,0.006698,0.033199,0.025959,0.110290,-0.069288,-0.020954,-0.014239,-0.028972,-0.048060,0.053944,0.014991,0.088050,0.061905,0.034334,-0.085438,-0.029551,0.010610,-0.043057,-0.008309,0.027770,-0.101190,0.008201,0.024984,0.084465,0.059986,0.025473,0.023997,0.014897,-0.004643,-0.007210,-0.094240,-0.040689,-0.008004,-0.037244,0.058861,-0.001788,-0.021593,0.054162,0.019608,-0.007341,-0.009813,-0.016824,-0.058537,0.039718,-0.059099,-0.025318,-0.031792,-0.042187,0.073485,-0.043581,0.060821,-0.004728,0.125665,-0.019213,0.046203,0.009612,-0.053055,0.056919,-0.021629,0.001359,0.076588,0.022287,-0.085637,0.000000,-0.074354,-0.017675,-0.008398,0.095655,-0.016580,0.024270,-0.033520,-0.061415,0.029991,0.057638,0.083806,0.057905,-0.010012,0.035359,-0.035816,-0.025003,0.036008,-0.052602,0.028181,0.007369,0.057522,-0.028872,-0.024222,-0.024157,-0.018655,0.065785,-0.132805,0.007878,-0.098016,-0.009681,0.007424,-0.025606,-0.016838,0.119543,-0.009346,-0.009446,0.019232,0.099120,-0.059300,-0.025927,0.052676,-0.036383,-0.103070,0.026981,0.044450,0.018347,0.008337,0.005058,-0.065534,0.064878,-0.095612,0.047559,-0.169511,-0.005853,-0.049043,0.025787,0.130667,-0.085940,0.001178,-0.053361,-0.096780,0.003454,-0.029464,0.020178,0.048347,0.020341,-0.038954,0.026084,-0.030111,-0.014417,-0.029312,-0.009081,0.018674,-0.004307,-0.075830,0.054131,-0.018896,-0.004983,-0.034918,0.011870,0.023465,-0.037463,-0.082394,0.001918,0.080032,0.068879,-0.007410,-0.111940,-0.013561,0.170642,-0.045079,-0.054997,0.072347,-0.064994,0.021557,-0.000000,-0.016226,0.084441,0.028284,0.053296,-0.060112,-0.087398,0.019881,0.032505,-0.029954,0.118387,-0.066405,0.007773,-0.043255,0.012647,-0.045563,0.004403,0.066438,0.063710,-0.077901,-0.018198,0.011617,0.060766,-0.043757,0.071828,-0.002025,-0.010610,-0.068018,0.048972,0.025230,0.007032,0.029589,-0.060740,-0.015741,-0.030544,0.013892,0.010789,0.000329,-0.061078,0.070756,-0.060691,-0.030027,-0.042838,-0.080705,0.017570,0.051892,0.003971,0.017388,-0.009631,-0.029099,-0.087215,0.022459,0.040577,-0.069451,-0.060326,0.096980,-0.045539,0.038131,-0.086864,0.018674,0.059164,-0.044173,0.012289,0.025271,0.093589
-0.034535,0.061204,0.022824,-0.058954,-0.032404,0.043653,-0.036818,0.000079,-0.073582,-0.096483,0.026219,0.114585,0.046238,-0.012058,0.076384,0.008073,0.053784,-0.036711,0.028290,-0.026936,-0.098896,-0.086618,-0.028976,-0.028489,0.068392,0.020200,-0.007608,-0.009672,-0.010194,-0.021885,-0.061291,0.030109,0.075592,-0.031029,0.094850,-0.059152,-0.011793,-0.001131,-0.021605,-0.055089,-0.010195,0.035194,-0.073747,0.018101,0.002608,-0.053696,0.079245,0.036778,0.014778,0.046684,0.008508,0.069681,-0.018267,-0.052880,0.013085,0.027691,-0.053691,-0.044994,0.017299,-0.025714,-0.054218,-0.038871,-0.005171,0.018908,0.027845,0.019108,-0.091707,0.014473,-0.087160,-0.016836,0.026088,-0.047593,0.005297,-0.021687,0.010691,0.084898,0.019883,-0.010761,-0.015816,-0.099689,0.013239,0.066517,-0.072665,0.027554,-0.042416,0.001939,0.043164,-0.002801,-0.008301,0.025127,0.075783,0.056212,-0.055648,-0.002533,0.015549,-0.033968,0.020527,-0.015817,0.116535,0.001433,0.050594,0.033403,0.040779,-0.156165,-0.004147,-0.048717,-0.029687,0.103081,-0.039927,0.021783,-0.026642,-0.018314,0.072664,0.008564,0.016229,-0.067280,-0.028425,-0.073771,0.080473,-0.018546,0.089007,0.076539,-0.032077,-0.003183,-0.073861,0.001174,0.039624,-0.000000,-0.009720,0.033550,0.002075,-0.012655,0.006969,0.073595,-0.001632,-0.021398,-0.004723,0.050084,0.075476,0.014964,-0.010541,-0.008997,0.034344,0.096814,-0.010343,-0.009049,-0.016859,0.014057,-0.066787,-0.055018,-0.023771,0.039449,-0.032785,0.085372,-0.062392,0.103791,0.007156,0.004278,0.086353,0.026001,0.099285,-0.020270,-0.082150,0.007485,0.020180,-0.051775,0.009381,0.020867,-0.089883,0.038623,0.027377,0.008983,0.018284,-0.035338,-0.084477,0.048298,-0.041643,0.035746,-0.037249,0.046355,-0.031678,0.035103,-0.071061,-0.017489,0.012507,-0.105894,-0.063242,-0.009740,-0.044140,0.117506,-0.002575,-0.084582,-0.110180,0.052914,0.001599,0.028366,-0.069397,0.029800,-0.014397,0.038391,-0.051147,-0.057020,0.082084,0.002057,0.001970,0.056460,0.051817,-0.025165,-0.010735,-0.025210,0.063158,-0.011555,0.011595,0.052996,0.106544,0.014689,-0.015653,0.003895,0.005996,0.032883,-0.028668,0.053462,-0.011599,0.000000,-0.020187,0.106353,0.003020,0.046428,0.005286,-0.045925,-0.070601,-0.030360,-0.009521,0.037609,0.041149,0.051761,-0.017260,0.050096,-0.012996,0.039044,0.131976,-0.052646,0.065802,-0.068327,-0.007209,0.025460,0.015294,0.045793,-0.109094,0.089185,-0.099199,-0.057326,-0.057124,-0.027179,0.035710,-0.047114,-0.026305,-0.043180,0.039362,-0.091750,-0.006553,-0.070623,-0.004271,0.028620,0.041398,-0.100799,-0.019643,0.094790,-0.023051,-0.029606,0.075118,-0.029058,0.082787,0.026897,-0.067999,0.011330,-0.059335,-0.014748,-0.054052,0.014931,0.110937,-0.002114,-0.021876,0.087774,-0.038772,0.063157,-0.017585,-0.099840,0.020764,-0.001758,0.117284,-0.004408,0.053606,-0.038066,0.033314,0.050631,0.013563,0.039904,-0.085422,0.037515,-0.006746,-0.014865,0.029038,0.046452,-0.043100,0.025965,0.051606,0.039735,0.005551,0.033408,-0.079045,-0.064431,0.032812,0.058971,0.008976,0.023137,-0.018348,-0.087309,-0.022979,-0.000000,0.004662,0.053854,0.061298,0.007433,0.032172,-0.020931,0.140133,0.087923,0.020524,0.067324,-0.082461,-0.044930,-0.112165,-0.052376,0.012178,-0.029068,0.065811,0.003067,-0.037637,-0.067047,-0.034830,0.073236,0.011899,-0.038796,-0.098065,-0.027144,0.018283,-0.027276,-0.022415,0.007383,0.003948,0.010538,0.014946,-0.056442,0.003463,-0.104020,-0.045297,0.003875,0.014619,-0.054181,-0.051543,0.020241,-0.035338,0.021905,0.005399,-0.008547,-0.036103,0.013900,-0.053368,-0.101211,0.021501,-0.044735,-0.015489,-0.010215,0.015736,-0.065512,-0.071227,0.008681,-0.003311,-0.065282,-0.059854,-0.061184,-0.092485,0.073782
-0.021469,-0.050215,-0.026355,-0.040983,-0.005350,0.020856,0.013087,-0.017321,-0.061161,-0.030699,0.029981,0.170359,0.011380,-0.012959,0.035979,0.001312,-0.015117,0.011021,-0.045859,0.005968,-0.112050,0.036167,-0.019616,-0.004524,0.063491,0.004975,0.002897,0.007740,0.013925,0.015029,-0.133310,0.021920,-0.000722,0.023702,0.073409,0.024894,0.046128,-0.014318,0.082731,-0.021626,0.015911,-0.048134,-0.057120,0.016785,-0.073154,0.014692,0.038844,0.005943,0.045895,0.054563,-0.022172,0.074185,-0.057093,-0.038415,0.008062,0.097321,-0.070041,-0.052514,0.081002,-0.028095,-0.040595,-0.025807,0.011757,0.055086,-0.002062,-0.027112,-0.076448,0.026516,-0.120707,0.003477,0.061558,-0.057554,-0.050776,0.015127,0.006563,0.003092,0.105090,0.018467,0.085438,-0.073802,-0.006134,0.019850,-0.068721,0.014058,-0.048931,-0.030527,-0.006116,-0.017531,0.060131,0.004982,0.009019,-0.080980,-0.022247,0.023145,-0.015670,0.012715,-0.001940,0.096392,0.006857,0.068070,0.004870,0.073841,-0.036727,-0.072519,-0.121927,-0.002716,-0.050177,0.016761,0.010894,0.026878,-0.041850,0.023089,-0.047990,0.069655,-0.002913,0.045709,-0.015988,-0.074819,-0.015054,-0.045407,0.063206,0.074141,-0.084131,-0.043148,-0.082579,-0.019250,0.067061,-0.000000,-0.013270,0.013215,-0.013405,0.067091,-0.004081,0.020268,-0.041593,-0.038924,-0.081020,-0.017177,-0.062662,0.123248,-0.034781,-0.025402,0.004238,-0.032422,-0.020462,0.032489,0.134263,-0.041578,0.023749,-0.072465,-0.016091,0.019547,-0.023350,0.008733,-0.043153,0.021141,-0.034712,0.002691,0.123414,0.013239,0.027692,0.032319,-0.042444,0.019498,-0.078641,-0.057385,-0.056760,0.015942,-0.034758,0.053899,-0.051824,0.041302,0.013198,0.042784,-0.070017,-0.037941,0.018672,0.006085,-0.016110,0.013416,0.018104,-0.048683,-0.089180,0.040257,-0.025653,0.045061,-0.040387,0.019654,-0.024047,0.038693,0.082424,0.024548,-0.048547,0.046173,0.003190,0.030717,-0.094099,0.016981,-0.011109,0.023334,-0.000672,0.072375,-0.005931,0.068981,-0.044545,0.070393,0.033485,-0.051413,-0.022654,-0.076796,0.058884,-0.015044,0.084106,0.009139,0.028987,-0.049549,-0.011073,0.051048,-0.139574,0.109071,0.019015,-0.007576,0.007552,0.000000,-0.035043,0.066401,-0.022616,-0.038393,-0.000845,-0.007245,0.045216,-0.052141,-0.023498,0.037993,0.006404,-0.028370,-0.003390,0.022862,-0.013344,-0.033280,0.134268,0.066560,0.030299,0.004601,-0.003651,0.073876,-0.090092,0.081393,-0.051358,0.115441,-0.165186,-0.005384,-0.016132,0.025972,0.024434,0.019538,-0.028307,0.087405,-0.014953,0.030160,-0.005102,-0.046323,0.036947,-0.031937,0.013161,-0.015269,-0.039256,0.172951,-0.012325,-0.007075,-0.021568,-0.032672,0.022892,0.048623,-0.047031,0.106806,-0.029733,-0.029119,-0.068285,0.108394,0.076167,-0.048933,-0.013563,-0.012627,-0.075149,0.059295,0.026685,-0.039603,0.032027,0.069475,0.046755,-0.034407,0.064064,-0.003055,0.026686,0.001050,-0.076944,0.028088,0.001146,0.047075,-0.062208,-0.055317,0.007247,0.027319,0.001171,-0.048224,-0.021907,0.064825,0.022713,0.034256,0.003222,0.024966,0.036125,-0.010277,-0.085026,-0.092704,-0.025317,0.025054,-0.028953,-0.000000,-0.003036,0.033199,-0.045124,0.049851,-0.031009,-0.026322,0.056779,0.060563,0.032599,0.003323,-0.098211,0.006525,-0.051820,0.082641,0.023753,-0.043934,-0.006916,0.043883,-0.058254,-0.023480,-0.014052,0.126123,0.012916,0.035992,0.022963,0.012525,-0.068461,0.057097,0.022062,0.029491,0.053316,0.024872,-0.068438,-0.027275,-0.011023,-0.020896,0.004245,-0.033480,0.023051,-0.088755,-0.069048,0.042922,0.011070,0.025582,0.065935,0.033067,-0.085203,0.049706,-0.032616,-0.074013,-0.021422,-0.001812,0.049626,0.000998,0.071877,-0.066140,-0.041599,-0.038103,-0.090918,-0.011726,-0.114612,-0.093698,-0.016909,0.046269
0.036098,-0.060015,0.055192,0.005534,-0.029529,0.024039,-0.071708,-0.083161,0.017282,-0.046844,0.016087,0.203285,-0.011711,0.005340,0.087428,-0.015304,0.076636,0.017216,-0.042049,-0.069450,-0.114548,-0.069958,0.048910,0.051846,-0.063130,0.016172,-0.099392,0.019579,0.049372,-0.063802,-0.066686,-0.046642,0.034220,0.035817,0.027047,0.007203,-0.009797,-0.021534,0.037742,-0.021121,0.028641,-0.020082,-0.052474,0.016796,-0.037595,0.052453,0.000812,0.007605,0.008822,0.106527,-0.030977,0.004658,0.057845,-0.072401,0.019075,0.105473,-0.010178,-0.040082,0.057794,-0.013372,0.036769,-0.029617,-0.020579,0.045555,-0.023401,-0.034188,0.010700,0.070191,-0.129654,0.000215,-0.007606,-0.045000,-0.002210,0.122414,-0.015381,0.108859,-0.010721,-0.052710,0.039720,-0.023886,0.017758,-0.106820,0.011344,0.010729,-0.051352,-0.059473,0.077957,-0.076994,0.011711,-0.009075,-0.010333,0.048964,-0.031925,-0.074429,-0.099671,0.001651,-0.018326,0.041690,0.015748,0.003029,-0.014772,0.078094,0.040467,-0.099879,-0.014665,-0.108645,-0.030792,0.110199,-0.008425,0.024106,-0.018246,0.045666,-0.049842,0.002737,0.063891,0.017436,-0.047646,0.020411,0.023289,-0.007837,0.035146,0.074764,-0.005485,0.020377,-0.041088,0.010395,-0.011506,-0.000000,-0.100571,0.018202,0.007641,-0.009190,0.000343,-0.003552,-0.012282,0.036031,0.005205,0.000680,-0.044850,0.006836,-0.011464,-0.038953,0.026147,0.015801,-0.008670,0.021451,-0.054042,-0.001433,0.004277,0.021578,-0.017313,0.056793,0.004610,-0.034712,-0.005404,0.110102,-0.026307,-0.027000,0.115717,-0.012308,-0.021855,0.026635,-0.039202,0.016099,-0.024137,0.007077,0.021553,-0.048645,-0.065993,0.016381,-0.048604,0.051299,0.050165,-0.013310,-0.011726,-0.015031,0.002474,0.049483,-0.053395,0.052993,-0.078776,0.055070,-0.012254,-0.036816,0.010947,-0.071180,0.031793,-0.000792,-0.024120,0.067380,-0.090562,-0.003475,-0.033919,0.047287,0.060488,-0.000962,-0.084177,0.062006,0.061267,0.034392,0.037928,-0.009224,-0.001341,-0.062992,-0.113061,0.051926,0.065246,-0.041043,0.066045,-0.008540,0.070513,0.007031,0.057155,0.025105,0.103891,-0.076269,0.054940,0.089508,-0.021730,0.054633,0.001084,0.075869,-0.033666,0.000000,0.069494,-0.031987,0.004247,0.127857,-0.076602,0.023446,-0.043835,-0.050903,-0.025294,-0.055222,0.017155,0.014780,-0.033080,0.072734,-0.059023,-0.034931,0.100430,-0.086023,0.014504,-0.105689,-0.041304,0.025522,-0.033314,0.082372,-0.059805,0.044419,-0.099301,0.023014,-0.010587,-0.044808,-0.035686,-0.028667,-0.021009,0.066975,0.016271,-0.033613,-0.067488,-0.018236,0.036643,0.045504,0.022359,-0.005090,-0.015814,0.105190,0.020284,0.000188,-0.007740,-0.097108,0.021760,-0.005389,-0.069539,-0.024602,-0.089449,-0.099011,-0.077150,0.064491,0.026865,-0.043599,-0.085545,-0.003217,-0.014148,0.027857,0.003044,0.069270,0.035310,-0.012785,0.059340,0.019042,0.086950,-0.002341,0.010664,-0.012240,-0.033337,-0.038929,-0.139179,0.034614,0.009809,-0.024879,-0.026959,-0.005519,0.014842,-0.012344,-0.010254,0.036718,-0.015707,0.096608,-0.006955,-0.042370,-0.057738,0.029405,-0.028731,0.015665,-0.078030,-0.028010,0.007118,-0.000000,-0.027816,-0.015201,0.029964,0.007543,0.115811,-0.001699,0.093648,0.087790,0.019846,0.008352,0.017597,-0.034247,-0.102920,0.064010,-0.002320,0.000410,0.030311,0.040289,-0.004350,0.049495,-0.092906,0.133353,0.081917,-0.026424,-0.016018,0.060066,-0.000735,0.010654,0.007675,0.009389,0.057014,0.001359,0.042422,-0.020781,0.047169,-0.085947,0.001400,0.035344,0.019773,-0.005895,-0.081526,0.031146,-0.049113,0.055983,0.017724,-0.041491,-0.013750,0.064062,-0.004968,-0.016863,0.015368,-0.039733,-0.001079,-0.047300,0.016953,-0.079764,-0.031721,-0.003887,-0.006159,0.000942,0.011033,-0.133699,0.041247,0.061288
0.014908,-0.000502,0.017061,-0.030263,0.016216,0.032175,0.024534,0.031153,-0.012788,-0.006081,0.005146,-0.030244,-0.050956,-0.108374,0.126833,-0.020983,-0.086330,-0.119271,-0.050261,0.079920,-0.014726,0.089630,0.048471,0.001997,-0.050194,0.007971,0.036533,0.012859,0.038709,0.046826,-0.012935,-0.016353,0.015601,-0.052391,0.062655,0.060017,0.034933,0.105318,0.032849,-0.038616,0.000218,-0.031119,0.004078,0.076749,-0.041439,0.054322,-0.027310,-0.047842,-0.098681,-0.037279,-0.063272,0.034904,0.049038,0.017817,0.040804,0.007524,0.009353,-0.033963,0.009363,0.007338,0.021526,0.009842,-0.067162,0.049139,0.005646,-0.065813,-0.003858,0.021810,-0.060875,-0.023792,-0.021172,0.016526,-0.018105,0.041921,0.010654,0.001983,-0.002511,0.057515,0.052644,-0.048216,0.117934,-0.022617,-0.013275,-0.044072,-0.017178,0.012044,0.012998,-0.111976,-0.022215,-0.037503,-0.043632,-0.085792,0.025723,0.078780,-0.024360,0.015169,0.043018,0.090485,-0.003476,0.087887,-0.030904,0.116694,-0.019186,-0.054795,0.018038,-0.001554,0.051431,0.006034,-0.015181,0.002367,-0.012700,0.020556,-0.037558,0.007144,0.023264,0.013803,0.003587,0.025833,0.148131,-0.013243,-0.023391,0.061971,-0.075947,0.028603,0.057802,-0.061175,-0.070722,-0.000000,0.033275,-0.054335,-0.003630,0.009895,0.016456,0.046263,-0.020089,-0.008208,0.015439,0.052238,-0.036908,-0.081815,0.004935,-0.043066,0.091344,-0.014153,-0.022621,0.033201,-0.007287,-0.026751,-0.015475,0.016813,0.044431,0.021154,-0.006451,0.028977,0.083538,-0.007700,-0.047373,0.023614,-0.046404,0.093343,0.024206,0.077119,-0.022804,0.005983,0.030624,-0.040698,0.007178,-0.040691,-0.061548,0.039239,-0.080111,0.011744,0.050631,-0.068277,0.089802,-0.025838,-0.134362,0.074460,0.055135,0.057545,0.033307,-0.073182,-0.083733,0.000633,-0.030168,-0.029009,-0.044818,-0.020532,-0.002838,-0.012811,0.055643,-0.026984,0.007634,0.072704,0.009127,-0.006756,-0.063703,0.011006,-0.094224,-0.052152,-0.040512,-0.006306,-0.049473,0.066212,0.045442,0.011712,0.162001,-0.078618,0.018967,-0.017761,0.021711,-0.079499,-0.036812,-0.058194,0.028018,0.105711,0.003460,-0.033500,-0.114257,0.005965,-0.041922,0.093884,-0.030757,0.000000,-0.049908,-0.016902,0.016211,0.045090,0.014930,-0.058408,0.161420,0.028198,-0.009592,0.057932,0.049481,0.013339,0.027540,0.034942,-0.035154,-0.053725,0.107236,-0.039647,0.068290,0.016668,0.028754,-0.043432,-0.052269,0.038545,0.037289,0.073922,-0.062303,-0.044010,-0.088742,-0.062970,0.032414,-0.053761,-0.066976,-0.044279,0.032963,0.041304,-0.011225,-0.013879,0.032269,0.042767,-0.040270,-0.036007,-0.109084,0.034374,0.000578,0.039782,0.076806,0.079552,-0.087479,-0.046656,-0.018537,0.035104,-0.137016,-0.018300,-0.042934,0.078558,-0.002419,-0.000026,-0.032495,-0.019297,0.091172,-0.004804,0.062653,-0.055399,0.089603,0.020511,0.016508,0.029508,-0.022711,0.057861,-0.035981,-0.061465,-0.065730,0.040881,0.000713,0.019618,0.054349,-0.106848,0.019822,0.040682,0.010572,-0.070783,-0.036716,0.029451,0.025743,0.021029,-0.046311,-0.011070,0.032755,-0.031142,-0.120533,-0.031137,-0.026424,-0.084808,-0.066881,-0.000000,0.044687,-0.013988,0.053798,0.038215,0.060535,-0.000782,-0.010369,0.015896,-0.021515,0.091589,0.112140,0.045643,-0.048777,0.017521,-0.041632,0.006133,-0.000996,-0.004992,-0.048118,0.052603,0.019221,0.057403,-0.072402,0.002311,0.008382,-0.044651,-0.079630,0.016955,-0.044339,-0.084021,0.046031,0.038043,-0.010713,0.001944,-0.031363,0.042206,-0.010251,0.022673,-0.016145,-0.050673,0.000448,-0.020332,0.036117,0.155318,-0.016711,-0.041411,-0.022315,0.082737,-0.012202,-0.029655,0.013197,0.027890,0.000816,-0.037922,0.059143,-0.049145,0.020846,-0.015642,-0.104224,-0.025115,0.051461,-0.049846,0.062216,0.032222
0.067239,-0.031048,0.095559,-0.016738,0.043452,0.021146,-0.099349,-0.022480,-0.072982,0.020098,-0.034566,0.082534,0.023323,-0.019489,-0.013993,-0.033847,0.098401,-0.039799,-0.015615,0.020800,-0.090052,0.024668,0.117895,0.033292,0.115134,-0.024795,-0.050990,0.007705,0.071935,0.018483,-0.010843,-0.000876,0.037879,0.009017,0.045129,0.056779,0.055337,-0.012648,-0.023140,0.015267,0.037384,-0.042568,-0.073694,0.051897,-0.042062,0.011088,-0.006257,-0.021610,-0.036790,-0.051073,0.047410,0.044289,-0.008785,-0.132218,0.057062,0.039677,0.003921,-0.098212,0.095977,-0.000931,0.012595,0.005689,0.023923,0.016906,0.011422,-0.069321,-0.054829,0.025032,-0.002005,-0.025169,-0.005626,0.005397,0.020215,0.007869,-0.014630,-0.076883,-0.037570,0.025004,0.075593,-0.043135,0.086864,-0.073175,0.011564,-0.008354,0.067789,-0.095482,0.006081,-0.076764,-0.032741,-0.019793,0.032602,0.082448,-0.022474,0.077064,-0.035022,0.018618,0.014917,-0.005982,-0.057930,0.098261,-0.058796,0.059024,0.005909,-0.056520,-0.004029,-0.006472,0.015364,0.030781,-0.024355,-0.001724,0.052566,0.018769,-0.132826,0.066735,-0.028150,-0.002419,0.011350,0.013894,0.059153,0.047172,0.034660,0.003019,-0.030844,-0.001045,0.052157,0.035384,-0.025860,-0.000000,-0.016062,0.106746,0.053415,0.028586,-0.017053,-0.056309,-0.037630,-0.032592,0.005408,-0.005908,0.019504,0.036479,0.009473,0.049740,0.029400,-0.132894,-0.025384,0.040147,0.018105,0.074960,-0.005783,0.003200,0.042003,0.001708,0.069352,-0.042803,0.077820,-0.016638,-0.046839,-0.009265,0.009308,0.043354,-0.031716,0.066297,-0.012397,-0.027903,0.028396,-0.026765,-0.001915,0.049034,-0.065019,-0.014094,-0.005368,-0.007451,0.062036,0.078371,0.050422,-0.029647,-0.035795,-0.003189,0.000809,0.088350,-0.081500,-0.004139,-0.031563,0.007411,0.017226,-0.022646,0.038822,0.000666,-0.038601,0.024641,-0.035873,-0.075178,0.024385,0.065269,0.039938,0.033336,-0.009981,-0.024744,-0.063951,0.002192,-0.001328,-0.022853,0.086121,0.051641,-0.050765,-0.038927,0.053372,-0.028089,-0.062025,-0.004680,0.064325,-0.049284,0.099147,-0.034968,0.032162,0.039354,0.010204,-0.035781,-0.038849,-0.032153,-0.020633,0.016489,-0.010842,0.000000,0.008635,-0.005422,0.005449,0.118508,-0.025619,-0.031824,0.074025,0.034834,-0.008283,-0.002561,0.032407,0.018137,0.019170,0.065657,-0.054419,0.012864,-0.009988,0.031263,-0.029884,-0.041333,-0.006524,0.084890,0.033149,0.081328,-0.033369,0.045105,-0.082323,-0.046853,-0.067980,-0.080061,-0.080500,0.048065,-0.087084,0.058361,-0.056301,0.022283,0.017375,-0.109386,-0.049916,0.064574,0.011800,-0.035357,0.011733,0.068271,-0.018598,-0.027102,0.012982,0.019441,-0.030508,0.037117,0.045765,0.032533,-0.133706,0.060085,-0.027071,-0.011944,0.066963,-0.119538,-0.052042,-0.012705,-0.050440,0.107099,-0.015611,-0.000348,0.081745,0.014627,-0.041175,-0.001757,0.102871,0.009386,-0.000575,-0.090334,-0.071084,-0.057104,-0.020283,0.064902,0.121767,-0.033761,0.026853,0.069406,-0.002930,-0.051947,-0.003958,0.017581,-0.030095,-0.013059,0.002581,-0.092061,0.041543,0.104424,-0.142774,0.006160,-0.099632,-0.072559,0.010103,-0.000000,-0.051527,0.051560,-0.094635,0.005066,0.003903,-0.009880,-0.032133,0.081141,-0.036765,-0.014748,0.032049,0.012192,-0.027297,-0.023468,0.062159,0.046690,-0.037997,0.066927,-0.076196,-0.037433,-0.080631,0.152855,0.023465,0.059617,-0.062345,-0.009634,-0.070188,0.039281,0.025917,-0.034373,-0.006114,0.011420,-0.018272,-0.032553,0.040859,0.006082,-0.063106,0.007374,0.088110,-0.011652,-0.082057,-0.036969,-0.049450,0.064883,-0.005009,-0.083347,-0.064972,0.048343,-0.018276,-0.029292,0.036731,0.054911,-0.067045,-0.006581,0.030130,0.066894,-0.042041,-0.081173,-0.060063,0.038175,-0.014459,-0.131139,0.070896,0.002027
0.096067,-0.052451,-0.003399,0.005558,0.052900,-0.002042,-0.030616,0.055966,-0.043086,-0.031058,0.010205,0.092283,-0.013037,-0.021453,0.022340,0.007739,0.069123,-0.108071,-0.112885,-0.012920,-0.002219,0.005848,0.108279,-0.010565,0.060695,-0.002713,-0.044521,0.017451,-0.029902,-0.002338,-0.098216,0.060551,0.068773,-0.072343,0.029297,-0.016753,0.002490,-0.030839,-0.011176,-0.019972,0.040116,-0.017426,-0.032321,0.018379,-0.041527,-0.008643,0.027973,-0.045284,-0.019647,0.019619,-0.091317,0.019794,0.049311,-0.062548,0.010019,-0.015969,-0.037119,-0.050427,0.030863,0.013816,0.043055,-0.002108,-0.007897,0.047769,0.036883,-0.014234,-0.047185,0.010818,-0.107517,-0.045183,-0.007367,-0.005962,0.003733,-0.005390,0.018412,-0.034624,0.031536,0.035337,0.073688,-0.037861,0.119243,-0.083340,0.022208,0.004783,-0.081069,0.024758,0.019843,-0.019128,0.037488,0.009924,0.003857,-0.029588,-0.085435,0.010862,0.032836,0.116292,-0.083705,-0.000624,0.069263,-0.001414,0.002152,0.029059,-0.032143,-0.117690,-0.044152,-0.046763,-0.000817,0.042524,-0.002282,0.066595,-0.004566,-0.010288,-0.005150,-0.007936,-0.010293,-0.048701,0.003252,0.017086,0.006061,0.054081,-0.028005,0.133612,-0.020879,0.009404,-0.009904,-0.058076,-0.031523,-0.000000,-0.005376,0.016497,0.059781,0.047702,-0.013091,0.020698,-0.029014,0.021980,0.100606,-0.010967,-0.057489,-0.013571,0.016055,0.035645,0.061477,-0.028977,0.008253,0.055729,0.064199,-0.048280,-0.047256,0.048264,-0.044299,0.027804,0.005383,0.040485,-0.029015,0.007418,0.043738,-0.008918,0.004733,0.114587,0.015526,-0.124551,-0.046715,0.021119,-0.031847,0.034112,0.038426,0.057218,-0.104721,0.010193,-0.013498,-0.029775,-0.017654,-0.013846,-0.017185,-0.033622,-0.069679,0.048005,-0.068597,0.106815,0.089350,0.016469,0.051748,0.029404,0.010373,-0.032405,0.021067,0.036218,-0.021619,0.112215,-0.012253,-0.062063,-0.082543,0.067769,0.063617,-0.001405,-0.089104,0.135395,0.020187,-0.039811,-0.067024,0.032295,-0.062632,0.050075,-0.051135,0.028828,0.122763,-0.026775,0.022535,-0.001565,0.003296,-0.049505,0.020769,0.028783,0.075696,0.015137,0.018963,0.044326,-0.009916,-0.029303,-0.053118,0.071619,0.006620,0.000000,-0.073181,0.104116,0.042617,0.048844,-0.020666,-0.027003,0.038631,-0.019782,0.042507,0.128374,0.033667,0.049633,-0.018400,0.030865,-0.055501,-0.006992,0.040986,-0.017300,0.041460,-0.035485,0.072386,0.058090,-0.056884,0.124148,0.029694,0.013361,-0.073532,-0.049816,-0.071129,-0.099530,-0.093694,-0.074323,-0.026988,0.036949,-0.027827,-0.019725,-0.001345,-0.032068,-0.006344,-0.023642,0.013447,-0.056697,-0.096285,0.053531,-0.038394,-0.061599,0.119026,-0.019126,0.041930,0.013954,-0.000252,0.062057,-0.048603,0.029047,-0.053990,0.035602,0.018916,-0.074878,-0.079779,0.078852,0.009418,0.040908,0.010747,-0.041141,0.058358,-0.025279,0.023119,0.010938,-0.024857,-0.058633,0.096588,-0.057225,-0.053649,0.052206,-0.074100,0.017689,-0.003340,-0.111413,-0.050509,0.037440,0.048323,-0.033696,0.047405,-0.053671,-0.020824,-0.008084,0.017553,-0.061596,-0.000540,-0.002591,-0.100432,-0.042395,-0.041738,0.023432,-0.020110,-0.000000,-0.035078,-0.003515,0.121407,0.041655,0.001234,0.010755,0.064510,0.076521,-0.033665,0.000445,-0.034277,-0.009813,-0.119195,0.029341,0.050176,-0.015016,-0.036656,0.038217,-0.022101,-0.053300,0.082729,0.098913,0.011112,-0.048632,-0.025846,0.024065,-0.086774,0.016342,-0.023418,-0.036271,0.000637,-0.084808,0.013098,-0.079182,-0.085138,-0.037528,0.008342,-0.046718,0.017436,-0.072734,-0.074404,-0.027749,0.046856,0.063104,-0.012485,-0.028216,-0.059219,0.063128,0.016962,-0.078559,0.063354,-0.017590,0.020213,-0.024049,0.066299,-0.031181,-0.036999,-0.000804,-0.117557,-0.013818,0.024610,-0.097429,-0.028489,0.080500
-0.050048,-0.021214,0.081611,-0.028501,-0.021784,0.005350,-0.063937,-0.033183,0.034678,0.000442,-0.016142,0.025949,0.002222,0.020159,0.025880,-0.002680,-0.042997,-0.088121,0.049829,0.033928,0.047841,0.045951,-0.012168,0.052003,-0.058281,-0.025306,-0.009420,0.004102,-0.032136,0.056979,0.051988,-0.012698,-0.021241,0.016418,-0.001098,-0.006371,-0.039776,-0.000621,0.003199,-0.030689,0.003099,-0.135211,-0.011515,0.042967,0.005177,-0.078372,0.010124,-0.053329,-0.071359,-0.016052,-0.057325,0.006896,0.003571,-0.027122,0.023073,0.074931,-0.057802,-0.031334,0.045539,-0.016261,0.025775,-0.003460,-0.021622,0.064636,-0.002963,0.013704,0.040479,0.071505,0.033325,-0.004504,0.062942,-0.062177,-0.004623,-0.019592,0.010048,0.040908,0.035802,0.073864,0.008532,-0.064420,-0.007051,-0.001257,0.055457,-0.068549,-0.022906,0.084274,-0.089560,-0.095726,-0.040456,0.015964,-0.073354,-0.088857,-0.060927,0.022030,-0.066269,0.048646,0.032495,-0.065079,0.060676,0.089252,-0.019302,0.094202,0.041157,-0.072520,-0.003996,-0.045769,0.097149,-0.091353,-0.036841,-0.034747,0.032341,0.034762,-0.091243,0.013059,-0.082091,0.000799,-0.034616,0.036048,0.028594,0.043269,0.089670,0.077214,0.013500,0.038486,0.114057,-0.011630,-0.032488,-0.000000,0.025325,0.019957,-0.002995,0.036134,-0.010957,0.018799,0.029950,-0.002610,-0.038336,-0.023736,0.002969,-0.019005,-0.033059,0.057488,-0.003810,-0.064967,0.003752,0.098190,-0.043182,-0.014974,-0.021534,0.004826,0.008784,-0.025464,-0.010756,0.060064,0.051496,-0.067110,-0.037108,0.000208,0.071959,0.086833,-0.021572,-0.042185,-0.068421,-0.006413,0.001438,0.011474,0.041204,-0.017206,0.062027,-0.012501,-0.047933,0.038716,0.080878,-0.024581,0.124219,0.020250,-0.039900,-0.083347,0.026293,-0.025437,-0.015250,0.000445,0.055120,0.022610,0.074788,-0.012922,0.064103,-0.007115,-0.039513,0.060363,-0.052074,-0.010120,-0.109704,0.032996,0.100078,-0.005171,-0.067618,0.011920,-0.012245,-0.004969,-0.104147,0.021613,-0.012636,0.066288,0.056883,-0.028314,0.137247,0.083528,-0.015454,-0.028434,0.053750,0.015310,0.024938,0.009313,0.099749,-0.020700,0.020132,-0.083236,0.032580,-0.022663,0.003114,0.070667,0.062019,0.000000,-0.001422,0.001616,0.008425,-0.037640,0.018470,-0.090961,-0.032738,0.070996,0.046283,0.047112,0.050894,0.028415,0.012084,0.065945,0.016613,-0.010330,0.096959,0.010850,-0.043041,-0.018301,0.059123,0.042612,-0.069135,0.025285,-0.048063,-0.012100,-0.008942,0.012962,-0.163395,-0.053317,-0.055689,-0.136369,-0.031903,0.015987,0.042554,0.027389,0.053467,-0.042302,-0.043326,0.031346,-0.003922,-0.062276,0.024680,0.091086,0.008319,-0.016508,-0.005557,0.075068,0.010248,0.038576,-0.034611,0.041829,-0.169204,-0.034321,-0.075764,0.004697,-0.109221,0.006326,-0.028241,-0.000224,-0.034383,-0.071081,0.043343,-0.032911,0.005902,-0.039433,-0.043891,-0.050200,0.023087,0.063951,0.052356,-0.036909,-0.124080,0.036371,0.030726,-0.057650,0.093704,0.019630,0.091544,0.058693,-0.008695,0.029288,-0.016638,-0.004643,0.003494,0.034917,-0.036624,-0.071741,-0.002275,0.000132,-0.078328,-0.035573,-0.039592,0.017622,0.003698,-0.000000,0.028182,0.005748,0.016279,-0.022948,0.017369,0.049293,-0.015539,-0.068766,-0.030312,-0.010596,0.016260,-0.026945,0.068262,0.021916,0.059659,0.070173,-0.045879,-0.028413,-0.092528,-0.026712,-0.104954,0.021873,0.017799,0.094097,-0.019172,-0.054978,-0.117216,0.004007,-0.031615,0.051937,0.013767,-0.017550,-0.035452,-0.067878,-0.096124,-0.045473,-0.016563,0.047600,0.108949,-0.001839,-0.026557,-0.026212,0.005085,0.085576,0.054553,-0.115939,0.024906,0.001607,-0.030810,-0.083498,-0.005028,0.009496,-0.020795,0.036033,0.084344,0.071279,-0.038194,-0.006003,0.000243,-0.031848,0.055281,-0.135002,0.081647,0.017854
-0.072695,0.014510,0.006780,0.010326,0.059622,0.036661,0.095850,-0.065491,-0.079163,-0.072403,0.006404,0.047388,-0.034716,0.031708,0.087033,0.044400,-0.050793,-0.061938,-0.064381,0.057771,-0.009373,-0.005241,-0.044491,0.024277,-0.014323,0.013436,-0.029639,0.042539,-0.083661,-0.027561,-0.012179,-0.001806,0.039817,0.030877,-0.016077,0.007045,-0.010073,-0.002768,0.050403,0.001492,0.000384,-0.033179,-0.042265,0.026363,0.011523,0.003880,-0.059539,0.006855,-0.005807,-0.020347,0.014595,-0.019797,0.041191,0.028770,0.105695,-0.094019,0.020384,0.002084,0.027174,0.071836,-0.033641,-0.010137,-0.115010,0.114011,0.024889,0.070132,-0.001684,-0.118154,0.027491,0.007135,0.100693,-0.033693,0.023320,-0.036765,-0.001654,0.009458,0.068862,-0.013828,0.109140,0.075647,-0.043088,-0.034957,-0.044106,0.056860,0.035804,-0.002302,0.132878,0.001040,-0.067176,0.088667,0.019890,-0.042479,0.097622,-0.043532,-0.079843,-0.066421,-0.012140,-0.081296,-0.008669,0.104982,0.024159,0.011141,-0.058556,0.030181,0.005344,-0.038717,0.011449,0.048371,0.088912,-0.042505,-0.059451,-0.035069,-0.007842,-0.041225,-0.001505,0.006796,0.017515,-0.039559,0.021785,-0.014242,0.040960,0.021730,-0.091931,0.100330,-0.007748,-0.099433,-0.067783,-0.000000,0.013515,0.016704,0.047011,0.018346,-0.056282,-0.025798,-0.048536,-0.023859,-0.009173,-0.044553,0.007285,-0.012646,0.016542,-0.005395,0.033258,-0.027607,-0.039030,0.011679,-0.063382,-0.044828,0.039369,0.058536,-0.014227,-0.034609,-0.038332,-0.009494,-0.042445,-0.047263,0.069419,0.036698,-0.063211,0.021168,0.037678,-0.022989,-0.017838,0.013406,0.065293,-0.008293,0.000287,-0.002675,-0.051113,0.001030,-0.098041,-0.013126,0.019085,-0.004949,0.017596,-0.081041,-0.099830,0.038049,-0.001922,0.027208,-0.092337,0.011534,-0.002569,0.006510,-0.020933,0.004515,0.059804,0.043819,-0.007195,-0.007026,0.017444,0.038532,-0.066976,-0.022221,0.006284,0.083788,0.035311,-0.011753,-0.020992,0.020459,0.027620,-0.016640,-0.006342,0.006337,-0.071523,-0.014574,0.054180,-0.086667,0.065172,0.009511,-0.036274,0.018989,0.030211,0.026838,-0.026884,-0.006732,0.068689,-0.041575,-0.054443,-0.018568,-0.025901,0.027459,-0.091073,-0.000000,-0.133064,0.016069,-0.007961,0.067354,0.022055,-0.018929,0.046209,-0.012468,-0.074110,0.027189,0.060506,-0.091968,0.067948,0.003447,0.065515,0.008298,0.034734,0.012601,-0.036383,-0.036252,-0.028440,-0.030899,0.011594,0.003751,-0.012620,0.055846,0.034910,0.084727,-0.040279,0.013853,0.081951,-0.065359,-0.010022,-0.013271,0.009694,0.106311,0.023581,-0.001627,0.056468,-0.012600,-0.006582,-0.044351,-0.076719,0.154823,0.009995,-0.019336,-0.026060,0.023962,0.037730,0.084522,-0.082931,0.025135,-0.013309,-0.007167,0.017172,0.072851,-0.000224,0.062627,-0.003675,0.009824,0.093490,0.072833,-0.053724,-0.011640,0.059679,0.073483,-0.078652,-0.041259,0.025754,-0.030524,0.034527,-0.055188,-0.157358,-0.039201,-0.001061,-0.012526,-0.000558,-0.032861,0.018197,-0.113376,-0.036672,-0.005225,-0.029696,-0.073617,0.038467,-0.022522,0.043954,-0.052396,-0.024670,0.068937,0.016312,0.066552,0.062862,0.017538,0.026392,-0.000000,-0.035680,0.111300,0.045317,-0.014239,-0.089858,-0.022252,-0.040304,0.026620,0.016092,0.044445,0.075523,-0.018096,0.015815,0.044349,-0.039158,0.057346,0.032888,-0.003549,-0.068358,-0.062654,0.093781,0.093206,0.019650,-0.071575,-0.016135,0.073238,0.019340,0.013989,-0.005738,-0.043383,0.065093,0.000137,-0.035584,0.044742,0.106742,-0.211060,-0.068695,0.039933,-0.029268,-0.006248,-0.012530,0.077120,-0.009604,0.042184,-0.105651,-0.026716,-0.007666,-0.100175,-0.006691,-0.067003,-0.046736,0.000087,0.013045,-0.006704,0.096256,-0.045824,-0.001928,-0.041896,0.053600,-0.001341,0.129106,-0.019276,0.027671,0.016337
-0.029113,-0.031628,0.089340,-0.006640,0.062137,0.027132,0.027353,-0.008336,-0.096279,0.012957,-0.045405,0.057312,-0.040651,0.051215,-0.073366,-0.027815,-0.049814,-0.068518,-0.034777,-0.003061,-0.029257,0.018780,-0.002027,0.035452,0.024773,-0.007034,-0.008180,0.026605,0.017495,-0.025859,-0.013142,0.060306,-0.075946,-0.051014,0.044647,0.053086,-0.088922,-0.035874,-0.070392,-0.004519,-0.014787,-0.057152,-0.086510,0.029843,0.085570,0.064480,0.092885,0.019765,-0.017147,-0.008974,0.057995,0.016358,0.043308,-0.146443,-0.049634,-0.060299,-0.010326,0.033914,-0.021081,0.015619,-0.011919,-0.021083,-0.040205,0.069590,-0.019440,0.019457,0.009823,0.053415,-0.040645,-0.024277,0.051630,-0.045874,0.017275,-0.004942,0.018503,-0.014304,-0.042905,0.038529,-0.032034,-0.058375,0.035916,-0.030564,0.037277,-0.010855,0.083357,-0.062709,0.027317,-0.105896,0.047368,-0.012492,0.085699,0.027278,0.035921,0.101564,-0.005989,-0.028298,0.024965,0.088026,0.000698,-0.003807,-0.072174,0.045587,-0.081365,-0.048566,-0.084387,-0.072402,0.008322,0.073705,0.008733,-0.000763,-0.004670,-0.040393,-0.012898,-0.086084,-0.034268,-0.006740,-0.025524,-0.129351,0.036091,-0.057884,0.071162,0.079429,-0.092475,-0.029613,0.043544,0.112203,0.027125,-0.000000,0.014235,0.045869,-0.005089,0.015722,-0.014810,-0.041327,-0.029576,-0.020893,0.027349,-0.043074,0.011714,0.071312,-0.055460,-0.044717,-0.020935,0.007590,0.015948,0.103328,-0.065574,0.028770,-0.051964,0.040973,0.081279,0.004040,-0.006588,-0.037674,0.034815,0.034427,0.032957,0.006926,0.099156,0.065345,-0.025439,0.014259,-0.090993,0.089081,-0.062069,-0.050683,-0.044367,-0.023997,-0.020794,0.007406,0.022710,-0.009076,0.081860,-0.088700,-0.032841,-0.015522,-0.064695,-0.035363,0.002572,0.108840,-0.010891,0.034869,0.020073,0.016001,-0.009619,-0.015349,-0.001125,-0.009175,-0.023525,0.020725,-0.004697,-0.002498,0.000885,0.088281,0.017548,0.053974,-0.070996,0.001122,-0.025688,0.077952,0.069570,-0.023671,-0.016936,-0.012493,-0.016317,0.008159,0.018909,-0.009823,-0.014452,0.022475,-0.026683,0.018892,0.011015,-0.028255,0.085927,0.067578,0.048154,-0.014278,-0.033515,-0.063891,0.040239,0.045908,0.024501,-0.000000,-0.009745,-0.055112,0.026125,0.054896,-0.036416,-0.022911,0.030222,0.036578,0.010095,-0.005219,0.008432,-0.014646,0.032077,0.003479,-0.067692,-0.008506,0.033954,0.002362,0.076020,-0.028253,0.066489,0.023932,0.022347,0.044769,-0.061474,0.004916,-0.101178,-0.057076,0.054719,-0.108676,-0.095121,0.014459,-0.101843,-0.014550,-0.032179,-0.032316,-0.039820,-0.017316,-0.044202,0.069122,0.026814,-0.081307,-0.028297,0.003794,0.094647,-0.033545,0.019629,-0.056920,0.044664,-0.049856,0.085830,0.024322,-0.034900,0.005608,-0.034751,-0.016903,-0.046945,-0.047552,-0.081490,0.084438,0.075634,0.043430,0.006009,0.003260,0.017267,-0.019794,0.029836,-0.007485,0.017703,-0.020768,-0.023357,-0.102515,-0.053107,-0.060441,0.004415,-0.053068,0.006301,-0.058562,-0.091426,0.024476,0.060878,-0.039466,-0.000371,0.122092,0.090110,-0.011005,-0.049725,-0.064918,0.068465,0.080527,-0.134464,-0.030985,-0.018838,0.013900,-0.042286,-0.000000,0.025556,0.072860,0.062582,-0.006522,0.038052,-0.118581,-0.010421,0.141459,-0.057734,-0.022256,0.003478,0.089307,0.045659,-0.068866,-0.026705,0.004901,-0.050341,0.027878,0.011929,0.025051,0.010847,-0.006801,0.026863,-0.032396,-0.076161,0.038472,0.043141,0.033583,-0.030073,-0.039348,-0.030200,-0.002571,0.168060,0.069476,-0.025083,-0.035550,0.016330,0.091966,-0.019483,-0.108737,-0.083249,-0.049941,0.065550,0.073328,-0.021491,-0.085258,-0.080322,0.048186,0.032885,-0.085698,0.059646,0.002750,0.041282,0.050021,0.082434,0.005374,0.020949,-0.038940,-0.011698,0.047278,0.003831,-0.092376,0.004170,0.049615
0.086448,0.123586,0.017643,0.015002,0.035294,0.010175,-0.058743,0.050142,-0.086574,0.013297,0.087130,0.013055,-0.045637,-0.026620,0.003036,-0.032625,0.057877,-0.095972,-0.029334,0.090937,-0.014081,0.004432,0.090226,0.042519,-0.014775,0.018471,-0.010151,0.046962,-0.015125,-0.001768,-0.048339,0.067053,0.098060,-0.039765,-0.003744,0.031688,0.121044,0.044410,0.010695,-0.097038,0.055114,-0.018215,0.093184,0.060891,-0.017251,-0.100138,0.044904,-0.070833,-0.069786,0.048633,0.075521,0.023682,-0.059094,-0.045564,0.025603,-0.085982,-0.023602,-0.062595,0.002548,0.005445,-0.040964,0.063570,-0.045377,0.062711,0.011948,-0.038903,-0.048438,-0.133781,0.048407,0.045045,0.033132,-0.059445,0.002473,-0.002101,-0.024259,-0.084129,-0.015266,0.045862,0.035209,0.018505,-0.004038,0.029965,-0.047418,0.017263,-0.003542,0.009242,0.066442,-0.125575,-0.084344,0.034091,-0.042652,-0.049438,0.105186,-0.017025,-0.035734,0.053524,-0.097236,-0.000770,0.018537,0.037806,0.012455,0.065805,-0.049857,0.014671,-0.027844,0.035235,-0.014803,-0.015667,-0.043494,-0.006281,-0.044397,-0.001696,0.017012,-0.003770,0.000509,-0.007933,0.017519,0.000866,-0.030265,0.040488,0.069183,-0.017873,-0.041640,0.035467,-0.088577,0.016844,-0.050950,-0.000000,0.082563,-0.006528,-0.042699,0.021531,0.067956,0.026251,-0.009212,-0.030253,0.048200,0.033868,-0.006851,0.031171,0.003757,-0.058024,0.052543,0.013027,-0.045763,0.058409,0.048295,0.002110,0.076745,-0.007569,-0.005171,0.002398,0.050416,0.005991,0.006784,-0.002311,-0.106705,-0.013700,-0.099484,-0.017961,0.078795,-0.074959,0.044277,0.039080,-0.045990,-0.144347,0.005925,0.053319,-0.005535,0.009620,-0.117962,-0.005442,-0.038857,0.024282,-0.012248,0.037819,-0.035838,0.035021,-0.038412,0.043212,0.074211,-0.031916,-0.052819,0.036874,0.003696,-0.018549,-0.032183,-0.003117,-0.029876,0.035310,0.003809,-0.027576,-0.060947,-0.014516,0.035887,0.022893,-0.043719,0.017791,-0.078427,0.030055,0.090710,-0.018476,-0.076459,0.039246,-0.066691,-0.109853,0.026958,0.030917,0.082640,-0.036766,0.030071,-0.015323,-0.038910,0.011716,0.082089,0.024455,-0.029589,-0.013433,0.059178,0.029702,-0.064311,-0.070109,-0.083118,0.000000,-0.081481,0.038311,0.000892,0.025993,-0.019846,0.068329,0.030350,-0.074719,-0.000291,0.019776,0.115098,0.036523,-0.064930,-0.060863,0.002475,0.024321,-0.014328,-0.013573,0.030766,0.130156,0.112471,0.094878,-0.040207,-0.009405,-0.046447,0.033519,-0.029571,-0.092107,-0.093233,-0.021543,0.121496,0.090360,-0.048680,-0.046513,0.065786,0.053670,0.084196,-0.058024,-0.004211,-0.040976,0.038491,-0.013717,-0.006856,0.082563,0.001272,0.006914,-0.010304,0.052279,0.023987,0.008991,-0.073929,0.004442,-0.084723,0.043333,-0.035654,0.020776,0.044488,-0.062216,0.057631,0.020077,-0.025678,0.019390,-0.007709,-0.051026,0.030971,0.023863,-0.043093,-0.019232,0.031555,-0.029174,0.040239,-0.082798,-0.000817,0.007564,-0.027237,0.072242,-0.004570,-0.027985,-0.037946,0.044780,0.006552,-0.008819,-0.028703,-0.071998,0.020291,0.035424,-0.075057,-0.047525,-0.000149,0.008359,-0.077526,0.006287,-0.009950,0.017188,0.067184,-0.000000,0.018953,0.055401,-0.011217,0.016692,-0.035980,-0.074338,0.040727,0.050180,-0.062368,0.076303,-0.010591,0.054235,-0.059148,-0.012795,0.020911,-0.021965,0.036074,-0.067417,-0.065272,-0.050792,0.015809,0.067877,-0.113129,-0.005484,-0.026699,0.007834,0.027176,0.105142,0.009238,-0.003360,0.096434,-0.094124,-0.043139,0.003777,0.013180,0.085655,-0.029542,-0.000354,0.059649,-0.028452,-0.030026,0.037010,0.020342,0.140886,0.000316,0.026250,-0.077413,0.001224,-0.050833,-0.026214,0.046309,0.043899,-0.079401,0.015615,0.041447,0.022897,-0.006789,0.009949,-0.001588,-0.056982,0.095877,-0.028347,-0.073941,-0.016957
0.052720,-0.024313,0.091786,-0.045749,0.097224,-0.052788,0.001044,-0.069750,-0.071811,-0.074001,0.002513,0.090241,-0.026393,0.095805,0.003412,0.043656,-0.046793,-0.056403,-0.024056,-0.005007,-0.075784,0.073916,0.008118,-0.037734,-0.056940,0.093941,0.033281,0.064389,0.019454,-0.012409,-0.014982,-0.015213,-0.001971,-0.038150,0.076356,0.030849,-0.013010,-0.077404,0.058577,0.002713,0.033122,-0.062440,-0.014402,0.064088,-0.065607,0.013066,-0.054013,-0.015053,0.014933,0.041158,0.052885,-0.029479,-0.006999,0.017452,-0.011580,-0.050819,-0.060861,-0.054103,0.018238,-0.023451,0.015318,0.047037,-0.058494,0.025683,0.050904,-0.012331,-0.050676,0.102964,-0.005099,-0.029950,-0.011844,0.026852,0.029473,0.078930,-0.091301,0.059127,0.042587,-0.004631,0.056549,0.012353,-0.047085,-0.016979,0.110354,-0.028358,-0.013846,-0.013261,0.029245,-0.035796,0.019387,-0.060364,-0.025809,-0.030804,0.069060,-0.039967,-0.055703,0.035642,-0.030690,-0.015486,-0.012963,-0.021843,-0.063954,0.010643,-0.044863,-0.103948,0.030044,-0.008920,-0.055869,0.055781,0.078047,-0.020234,-0.084207,0.016694,-0.074961,0.050923,-0.000070,0.027255,-0.005444,-0.076158,0.013535,-0.101970,0.007279,-0.005216,-0.014834,0.028524,0.049440,0.015904,-0.005379,-0.000000,-0.072489,-0.051508,0.076562,0.034812,0.039139,-0.026022,-0.018435,0.005306,-0.030954,-0.040520,-0.065749,0.037257,-0.095768,-0.021545,0.014814,-0.011630,0.102677,-0.031437,-0.015037,-0.078320,-0.023020,-0.057710,-0.023749,0.035532,-0.036827,-0.025169,0.005828,0.010887,0.056748,0.016230,0.048008,0.005361,-0.070834,0.026818,-0.049803,0.092215,0.005493,-0.010111,-0.017168,0.060263,0.032606,-0.011961,-0.026996,0.075338,0.036220,-0.100771,0.009455,-0.019657,0.033614,-0.050617,-0.018858,0.023524,-0.099451,0.006428,-0.017115,-0.048839,-0.032441,-0.017794,0.069602,0.005221,-0.061745,0.061109,-0.021509,0.003368,0.002818,0.057884,0.105954,0.033404,-0.078007,0.046281,-0.061278,0.026717,-0.029746,0.030629,-0.062131,-0.006097,-0.032517,0.025681,0.106776,0.061186,-0.007750,-0.035201,0.066733,0.090047,-0.011666,0.004063,0.051600,-0.084847,0.012901,0.077719,0.019279,0.007726,0.026399,0.010204,-0.034926,0.000000,0.019807,-0.056672,-0.029005,0.029670,-0.008914,-0.028355,0.049275,0.017582,-0.026882,0.069134,-0.051701,0.078052,0.046376,-0.017320,-0.042336,0.044650,0.135485,0.018280,0.003894,-0.102155,-0.061949,-0.018488,0.061674,0.038526,-0.049621,0.109111,-0.018301,-0.022594,-0.012233,-0.056433,-0.048998,0.049194,-0.015252,0.014035,-0.057804,-0.008930,0.005237,-0.018595,0.003667,0.040846,0.042985,-0.114366,-0.013193,0.111186,-0.028061,0.047117,0.094685,-0.015523,0.040868,0.008442,0.008904,0.083454,-0.049215,-0.037814,-0.052057,0.053904,0.035156,-0.016917,-0.074569,-0.065240,0.029151,0.068768,-0.023443,-0.000795,0.069526,0.043930,0.021285,0.079969,0.076353,-0.024815,0.059493,-0.084670,-0.054978,-0.033984,0.035051,-0.024876,0.017888,-0.064552,-0.059419,0.038163,0.052620,0.018799,-0.024638,0.018702,0.119741,-0.005648,-0.000063,-0.108744,-0.027181,0.032310,-0.101054,0.020375,-0.148679,-0.023697,-0.001648,-0.000000,0.023139,-0.009707,0.054407,0.058653,0.021368,-0.023426,0.044804,0.128876,0.000657,0.063488,-0.047738,0.027222,-0.006566,0.008867,-0.080847,0.020660,0.072131,-0.059490,-0.082067,-0.015379,-0.075152,0.072377,0.029559,0.011815,-0.082008,0.013175,-0.008993,0.003857,0.087861,0.020172,0.062956,-0.006006,-0.047811,0.079758,0.038558,-0.112499,-0.035415,0.014638,-0.029838,-0.003404,-0.109751,0.017632,-0.005319,0.083323,0.009080,-0.006718,-0.069369,0.043479,0.022413,-0.006325,0.056311,-0.036703,0.000598,0.049088,0.010428,0.019411,-0.009648,-0.103675,-0.013296,-0.039086,-0.052987,-0.130503,0.071979,0.085111
-0.084184,0.028344,-0.010970,-0.054268,-0.003244,-0.080729,-0.004126,0.104414,0.110975,-0.111547,-0.091578,0.039838,-0.008214,-0.016560,0.015938,-0.009121,0.009319,-0.051249,-0.022664,0.034895,0.072598,0.091217,-0.002563,-0.006716,0.060695,-0.070119,0.004306,0.030384,0.048156,0.003773,-0.047572,0.033562,0.122841,-0.008967,-0.038883,0.039642,-0.016105,-0.005407,-0.011085,-0.013878,0.021169,-0.035104,0.014260,0.086154,0.009509,0.003819,-0.032838,-0.050125,0.032360,0.038628,0.015003,0.096160,-0.064461,0.005776,0.038896,0.124810,0.031810,0.021841,-0.010279,0.029853,0.009176,-0.051164,0.003911,0.008066,-0.034177,-0.058814,-0.020933,0.060638,-0.083206,0.093027,0.038721,-0.046678,0.098752,-0.080156,-0.022127,0.050377,-0.060319,0.015005,0.057734,0.009149,0.030375,-0.081717,-0.022925,0.018407,-0.079948,0.059056,-0.026730,0.016710,0.048492,0.003010,-0.022117,-0.130333,-0.080519,-0.062611,0.025027,-0.050995,0.024974,-0.106397,0.046851,0.073830,0.009682,0.067162,-0.021500,-0.036992,0.075485,0.011215,0.021330,-0.043976,-0.092762,-0.008842,0.039561,0.051467,0.092504,0.089773,-0.027826,-0.031330,0.003824,0.028163,0.042842,-0.065214,0.060003,0.027863,-0.026434,0.072548,-0.017146,-0.012350,0.073917,-0.000000,0.073103,0.048082,0.047807,0.117785,0.010551,0.010834,-0.014395,-0.010563,-0.063792,0.025186,0.051609,-0.052741,0.019782,-0.099123,-0.005006,-0.002457,-0.086621,-0.012170,0.000181,-0.015343,-0.017644,-0.005125,0.004150,0.041470,0.024361,-0.012121,-0.038970,-0.057200,-0.107041,-0.040550,0.016249,-0.039064,-0.055343,0.073561,-0.053834,0.019199,-0.024170,0.032347,0.018174,-0.048813,-0.022508,0.019618,-0.017195,-0.053080,0.019490,-0.032964,-0.058720,0.032612,-0.015625,0.033516,-0.004355,-0.029012,0.053561,0.021231,-0.079747,-0.006404,0.007811,0.025333,-0.079900,0.012113,0.064371,0.011639,-0.034700,-0.099593,-0.051313,0.019202,-0.012171,0.087409,-0.025948,0.011681,-0.035251,0.048394,-0.060171,0.057253,0.042706,0.085341,0.061460,0.013221,0.049245,-0.068298,0.067883,-0.133248,0.053084,-0.064622,0.018771,0.051100,0.004073,0.028902,-0.084097,-0.011178,-0.067956,-0.015107,0.001651,0.089778,-0.108683,0.000000,-0.075539,-0.045769,0.022111,0.022936,-0.002572,-0.039058,0.036192,0.074130,-0.002236,0.027898,0.072137,0.065393,0.019017,0.036378,0.040014,-0.044902,-0.009935,-0.069703,0.021716,0.058951,0.040840,0.005846,-0.067631,-0.043674,0.017584,0.009996,-0.014740,-0.026824,-0.067878,-0.103120,0.029444,-0.018046,-0.064844,-0.058991,0.008596,-0.013126,0.135987,0.032498,0.022150,0.018558,-0.021749,-0.060493,-0.083571,0.004388,-0.029919,-0.011651,0.036152,0.038160,-0.048089,-0.011272,-0.004006,0.038803,-0.084672,0.101181,-0.083866,-0.018908,0.003642,0.015477,0.010555,0.006454,-0.085360,-0.005641,-0.069257,-0.122164,0.047158,0.107625,-0.044242,-0.111170,0.017247,0.028697,-0.006389,0.096887,-0.061755,-0.000484,0.045749,0.076512,0.002261,-0.090940,-0.037124,0.054937,0.015381,0.020627,-0.057973,0.042420,0.001948,0.035167,0.046757,-0.006380,-0.008366,0.038229,-0.111648,0.000249,0.029056,-0.005274,-0.053409,-0.000000,0.058058,0.030847,0.004474,0.000735,-0.017323,0.032642,0.082844,-0.000788,0.011720,-0.073348,-0.002858,0.042060,-0.001379,-0.037518,-0.025096,0.067113,0.017780,-0.066302,0.025138,-0.015669,-0.014613,0.014843,-0.067145,0.093638,0.043233,-0.006934,-0.113806,0.009646,0.033001,-0.042970,0.077289,0.077297,-0.061659,0.019780,-0.057050,-0.025962,-0.037920,-0.041080,0.090870,-0.082287,0.012057,0.044884,-0.072323,0.033988,0.020862,-0.040931,-0.029329,-0.001674,-0.047188,-0.057228,0.026298,-0.024963,0.013143,-0.000908,0.069159,-0.024523,-0.010695,-0.014452,0.041163,0.041228,0.008961,0.058042,0.024710,0.052048
-0.104454,0.079451,-0.091101,0.003956,-0.024645,-0.043396,0.048181,0.007738,-0.008912,0.013874,0.006642,-0.057261,-0.015904,-0.073082,-0.016711,0.020070,-0.050795,0.000281,-0.037250,0.015044,0.072265,-0.075256,-0.065553,-0.025091,0.116576,0.026065,0.046616,0.084931,0.056769,-0.089949,0.005906,0.044196,0.051149,0.019637,0.021843,0.051431,-0.007237,-0.005665,-0.072592,0.003633,-0.033480,-0.075896,-0.004046,-0.012955,0.006851,-0.010937,-0.031229,0.055411,-0.030100,-0.000790,-0.024378,0.004473,-0.084039,0.103528,0.006350,0.012513,-0.050369,-0.073747,-0.020355,-0.022576,-0.014978,0.003795,-0.042398,0.069124,0.068755,0.036211,-0.052727,0.059692,-0.055453,0.014279,-0.027075,-0.072905,-0.055205,-0.040085,-0.032861,-0.047558,0.039168,0.063148,0.007330,-0.061174,0.009010,0.013504,-0.085774,-0.025886,-0.023129,0.045639,-0.067929,-0.017294,0.090734,-0.001502,-0.008687,0.040892,0.099212,0.007258,0.042222,0.060093,-0.012338,0.009680,-0.014598,0.038433,0.100300,0.085828,-0.049073,-0.025256,-0.010955,-0.009808,0.013710,0.020287,0.019103,-0.046698,-0.062703,0.064922,0.010740,-0.019107,-0.039368,0.026713,-0.039490,0.015790,0.104358,0.050027,-0.021338,0.032208,-0.114804,-0.005129,-0.069516,-0.044660,-0.024180,-0.000000,-0.088963,-0.012224,0.036874,-0.054507,-0.034396,0.042136,-0.044335,-0.002499,-0.023843,0.030122,0.063916,0.009149,-0.019890,0.088504,-0.000825,-0.076209,-0.012848,0.044633,0.014040,0.037965,0.068555,-0.002389,-0.014667,0.020045,0.062067,-0.043473,-0.055346,-0.041687,0.037091,0.021714,0.017221,-0.023260,-0.014403,-0.001288,-0.035295,0.040017,-0.039517,-0.010183,0.028336,-0.073497,-0.095561,-0.002201,-0.038290,-0.003463,-0.024172,0.033119,0.003303,0.005590,0.018919,-0.013077,0.011473,0.021257,-0.048181,0.002598,0.034869,-0.054895,0.043487,-0.000169,-0.113933,0.011303,-0.042908,0.065585,-0.007881,0.012688,-0.062702,0.086922,-0.040151,0.010457,0.062558,0.019532,-0.068589,0.080559,0.040427,0.103256,-0.067939,0.022820,-0.074384,0.035168,0.048719,0.108732,-0.031869,0.082793,-0.042702,-0.028259,0.038793,0.037831,0.031179,-0.087269,0.016141,-0.038357,-0.029100,0.050461,0.035291,-0.034963,0.104907,-0.000000,-0.000007,0.038919,-0.052952,0.088602,-0.004786,0.083147,0.068638,-0.012385,0.138391,0.099292,-0.075912,0.004849,-0.027290,-0.015541,0.102660,-0.036418,-0.016101,-0.011030,0.004503,0.013549,0.006794,0.080325,-0.034232,0.070799,0.008365,0.014627,-0.066378,0.052918,-0.054612,0.015400,0.041323,-0.047963,-0.072172,0.012280,-0.007875,-0.089735,-0.013929,0.009830,0.006439,0.008795,0.100280,-0.010659,0.029123,0.018751,-0.017142,-0.024420,-0.048407,-0.038716,0.071195,-0.115077,0.023180,0.008054,-0.037691,0.089786,-0.071085,0.152295,0.032568,0.006165,0.035291,-0.001649,-0.026102,0.019718,0.000661,0.098403,-0.032132,-0.095377,0.008444,-0.022256,-0.042071,-0.089196,0.027340,0.052313,0.000551,-0.084540,-0.027698,0.129641,0.044362,-0.012117,0.002589,-0.056401,-0.083700,0.071039,0.036568,0.051355,-0.061544,0.021870,-0.020297,-0.167042,-0.002278,-0.023197,-0.061929,-0.024901,-0.004255,-0.025109,-0.016861,-0.000000,-0.039626,-0.075478,0.036937,-0.040193,0.047923,-0.042293,-0.050283,0.050387,-0.066944,-0.004580,0.089029,0.051119,-0.088516,-0.020376,-0.034279,-0.003776,0.034772,0.006315,-0.012711,-0.045203,0.090415,0.013570,0.027344,0.021508,-0.083523,0.019037,0.065318,0.137336,0.051761,-0.042886,0.028584,0.017402,0.005161,-0.002698,0.048717,-0.020097,-0.018437,0.009715,-0.028256,0.062595,-0.014083,-0.024273,-0.000774,-0.004492,0.013592,-0.057027,-0.060937,-0.094250,-0.039590,-0.131013,-0.026893,-0.047325,0.044378,0.001436,0.071485,-0.046351,-0.046951,0.011091,-0.029932,0.040804,0.070582,-0.063835,-0.011363,0.026609
-0.086472,-0.024039,-0.002174,-0.015290,0.019116,0.127933,0.061150,-0.001173,0.029647,-0.009144,-0.077831,0.022595,0.020581,0.113783,0.057296,-0.041004,-0.028905,-0.063127,-0.046754,-0.010455,-0.001642,0.039376,0.046739,-0.011565,0.083003,-0.081196,0.007958,0.014873,-0.021862,-0.042760,-0.029672,-0.016644,-0.009735,0.011779,0.025321,-0.042014,-0.017413,-0.102782,-0.006597,0.044883,-0.025053,-0.084327,0.005213,-0.001566,0.034437,0.039946,-0.021775,0.050141,-0.034323,-0.006044,-0.016902,-0.019512,0.007190,0.052184,0.018078,0.071051,0.017529,-0.047242,-0.015734,-0.010550,0.012259,0.005931,-0.020523,0.087610,-0.095099,0.014635,-0.022345,0.109406,-0.024834,0.028239,-0.033248,-0.057045,0.040798,-0.039494,0.000068,0.097626,-0.045788,-0.030449,-0.006081,-0.021684,0.056212,-0.077931,-0.011662,-0.068415,-0.015495,-0.006651,-0.000867,0.037197,-0.064146,-0.048330,-0.004285,-0.052633,0.056678,0.003271,-0.016841,0.007921,-0.009707,0.037613,-0.041391,0.088596,0.084682,0.118751,-0.058492,-0.027691,0.049147,-0.034562,0.026063,0.030350,-0.007111,-0.095087,0.017823,0.069289,0.022725,0.027824,-0.016823,-0.010365,0.109982,0.091771,-0.001672,-0.031552,-0.026998,-0.018077,-0.085452,0.010714,0.007358,0.055595,-0.074048,-0.000000,0.025686,0.041626,0.032167,0.036836,0.034880,-0.010755,0.003302,0.027747,-0.051757,-0.088255,0.104753,-0.036198,-0.013515,-0.023096,0.019667,-0.051323,-0.087508,0.000244,-0.026421,-0.039643,-0.011932,-0.093825,-0.049385,0.094215,0.010480,0.057701,-0.018309,0.046419,-0.071589,-0.012971,-0.038469,0.040403,-0.095374,-0.003766,-0.026754,0.030672,0.043812,0.038011,0.010228,-0.100930,0.046465,-0.019518,-0.002260,-0.004430,0.081284,-0.004717,0.035511,-0.010957,-0.041213,-0.130239,-0.012023,0.069057,-0.041573,-0.015098,0.024422,-0.023858,0.095926,-0.008173,-0.069446,0.016324,0.081951,0.005889,-0.083844,-0.012759,-0.117735,0.065638,0.045567,0.033104,0.041628,0.057007,0.022525,-0.011070,-0.020375,-0.025539,0.070539,0.050790,-0.004516,-0.040938,0.052409,-0.022888,0.048201,-0.006054,-0.010755,-0.015929,0.088268,-0.084995,0.061122,-0.039937,-0.064454,-0.043560,-0.056411,0.023575,0.035162,0.060880,-0.045179,0.000000,-0.034391,-0.024989,-0.086624,0.044690,-0.007785,-0.034066,0.067244,0.088851,0.074548,-0.014610,-0.014119,0.035971,0.037356,-0.035863,-0.044671,-0.044116,0.040311,-0.025557,-0.010199,0.062673,0.025410,0.017629,-0.056835,0.025207,0.035000,0.055429,0.105752,-0.006273,-0.041494,-0.016304,-0.051785,-0.228047,-0.128540,-0.072171,0.003422,-0.027918,0.065234,-0.011513,-0.026117,0.039688,0.030084,-0.056641,-0.086097,0.015451,-0.057342,0.037037,-0.029969,-0.044646,-0.081528,0.088518,0.065511,0.033232,-0.047368,0.078812,-0.048992,0.007689,-0.037751,0.073643,0.000880,0.031028,-0.082160,0.095718,-0.067429,-0.048757,0.033405,0.002662,-0.018835,0.092161,-0.019037,-0.049409,-0.047620,0.019784,-0.009347,0.042287,-0.073389,0.030659,0.012411,-0.025658,0.042778,0.037762,-0.006713,-0.033085,-0.072862,0.054022,0.072562,-0.012540,0.071108,0.079918,0.068553,0.064837,0.009803,0.035103,0.071729,-0.023261,-0.027228,-0.000000,0.035172,-0.019471,0.008966,0.034506,0.041819,-0.050525,0.001156,-0.031716,0.028647,0.039341,0.086112,0.007383,-0.039707,0.042637,-0.013282,0.022945,-0.025039,-0.005113,0.030839,-0.083553,-0.058781,0.104538,0.024390,-0.008697,0.010241,0.067451,-0.007650,0.030197,0.031248,0.082210,-0.009129,-0.005306,-0.087678,-0.017795,-0.106308,-0.043046,-0.057255,-0.055011,0.062745,-0.024844,-0.053569,-0.035744,-0.053556,0.087849,-0.040855,-0.065803,-0.091043,0.029587,-0.023299,-0.061202,-0.013715,-0.018713,0.010671,0.031023,0.050938,0.003940,0.048806,-0.054614,-0.063389,0.041934,0.042564,0.052530,0.042235,0.011424
0.038162,-0.008747,0.002638,-0.026994,0.002966,0.040146,0.000256,0.016939,0.015281,-0.020807,-0.031636,0.048514,-0.078052,0.006387,0.056351,-0.023371,0.005154,-0.029064,0.023842,0.054716,-0.001097,-0.042088,-0.019016,-0.036619,0.098435,-0.030666,0.000396,0.028288,0.060464,0.043066,0.065436,0.110382,0.025553,-0.083115,0.038690,0.011562,0.023943,0.091168,-0.025966,0.039687,0.005631,-0.037242,-0.001868,-0.021808,-0.030795,-0.057925,-0.015412,-0.041535,-0.070742,0.054297,0.022087,0.027043,0.002073,0.009125,-0.034161,-0.000697,0.020576,-0.014003,-0.018746,0.005513,-0.049962,-0.045093,0.049112,-0.025106,-0.052676,-0.097035,-0.007758,0.029735,-0.045503,-0.064547,-0.064057,-0.079927,-0.049038,-0.013032,-0.052483,0.027619,0.037267,0.043501,0.051779,-0.032558,0.064277,-0.060846,0.004207,-0.051787,0.040148,0.000829,0.036280,-0.115983,0.026350,0.009573,0.029499,0.021141,0.023643,0.000815,0.045041,0.062728,-0.057881,0.023470,-0.030717,0.022105,0.022700,0.102835,0.054401,-0.041956,-0.000384,-0.005704,0.025901,-0.020090,0.028686,-0.046460,-0.018652,0.081080,0.045913,0.014990,-0.009282,0.024851,-0.144849,-0.029419,0.045750,0.099223,0.069356,0.127191,-0.106130,0.050129,-0.028036,0.007265,-0.020138,-0.000000,0.016655,0.086350,-0.032633,0.032014,-0.037657,-0.007530,-0.038684,-0.056429,-0.024822,0.021185,0.035324,0.011213,0.006706,0.005079,-0.048363,-0.031628,-0.099459,0.049369,0.090543,0.038552,-0.005804,0.006749,0.031232,-0.034653,0.039811,-0.053104,-0.042785,0.020951,0.074710,0.000186,-0.011961,0.076811,-0.004601,-0.086619,-0.047336,0.049726,0.002710,-0.042034,-0.006029,0.001434,-0.070904,0.016948,-0.008178,0.022078,-0.009779,0.052196,0.083321,-0.014153,-0.011772,-0.003443,-0.026286,0.009151,-0.129835,0.051127,-0.063991,-0.082323,0.016776,-0.045595,-0.046824,-0.026546,-0.066161,-0.003643,-0.053911,-0.069542,-0.072566,0.075742,0.021341,0.082205,-0.042612,0.041015,-0.012649,0.033514,0.032774,-0.067976,-0.008296,0.029602,0.007851,0.052111,0.069981,-0.009927,-0.036401,-0.004826,0.076121,0.001082,0.122429,0.067919,0.087014,-0.010077,-0.012034,-0.007338,0.019179,-0.048287,0.049323,0.064242,0.016265,0.000000,-0.130365,0.007785,0.001562,0.102099,0.042415,0.060012,0.068326,-0.005044,0.008170,0.050383,-0.024148,0.009316,-0.115740,0.036802,0.054980,-0.100317,0.057220,-0.015473,0.103393,-0.057917,0.058182,0.093922,-0.026252,0.106643,0.023410,0.066301,-0.169036,-0.061677,-0.042253,-0.000552,-0.002110,0.032757,-0.104357,-0.028440,-0.016208,-0.042163,-0.077298,-0.049437,0.034040,0.029068,-0.027808,-0.064634,-0.036122,-0.010366,0.036762,-0.055099,0.031046,-0.082131,0.045526,-0.006207,0.011870,0.021333,-0.075905,0.021290,-0.087118,0.060785,0.011114,-0.050475,0.002996,0.003435,0.027482,0.072089,-0.096561,0.009466,-0.019237,0.006074,0.008080,-0.066326,-0.003626,-0.014664,0.015597,-0.042109,0.010833,-0.021441,0.032108,0.101959,0.113575,-0.025534,0.017283,0.036879,-0.024656,-0.014348,0.048398,-0.040898,-0.013788,0.000916,-0.076190,-0.138523,-0.017576,0.012773,-0.055164,-0.044029,-0.002975,-0.044904,0.046032,-0.000000,0.004758,-0.029164,-0.005953,-0.037696,0.008246,-0.086831,-0.033728,0.089267,-0.008750,0.008616,0.062990,0.037676,-0.018994,-0.047733,0.017960,0.064265,-0.087080,0.042457,-0.015501,-0.016510,-0.012238,0.057426,-0.095875,0.033189,-0.081244,0.041841,0.056156,0.143505,0.077080,-0.030893,-0.003340,0.005955,0.022317,0.016793,0.006305,-0.049596,0.050427,0.012199,0.006579,0.067811,-0.000542,-0.109420,0.048856,-0.004978,-0.053647,0.017408,-0.084613,0.017464,0.019651,-0.052938,0.044256,0.015601,0.041699,0.041917,0.029956,-0.095823,-0.062951,-0.010858,-0.104749,-0.064197,-0.034668,-0.093066,0.028529,0.028542
0.005338,0.108137,0.055400,-0.012805,0.044008,0.063294,0.008381,-0.007563,-0.014977,0.014177,0.011746,0.048053,0.052729,0.042471,-0.021837,-0.032837,0.026274,0.041891,0.039306,0.116862,-0.044085,0.044089,-0.056165,0.019350,0.065429,-0.006920,0.040580,-0.000642,0.002854,0.011623,0.024609,-0.058327,-0.035780,-0.040492,0.062566,0.008622,-0.094722,-0.024244,-0.105848,0.033309,0.065197,-0.030999,-0.054202,-0.010323,-0.118154,-0.066224,0.029295,-0.057017,-0.044476,0.061066,-0.034365,0.015208,-0.093127,0.021708,-0.018484,-0.141832,-0.010496,-0.012730,-0.045177,0.016119,0.049121,-0.028710,-0.025519,0.047795,0.075288,0.063567,0.047186,0.047205,-0.095832,0.003390,0.030845,-0.028627,0.040474,0.039291,0.034195,0.050358,-0.004619,0.036398,0.012185,-0.028505,0.044047,0.056008,-0.000005,-0.019868,-0.012607,0.046589,-0.065466,0.018078,-0.000475,-0.034190,-0.013005,-0.045294,0.089653,0.007415,-0.025740,0.008310,0.009456,0.000355,0.004401,-0.000837,0.002099,0.018050,-0.028104,-0.073364,-0.049986,-0.064161,0.013802,-0.026484,-0.023370,0.048377,0.028270,0.057536,-0.028371,-0.022593,0.003325,0.109557,-0.015070,-0.035778,0.063269,-0.047730,0.049255,0.029076,-0.026248,-0.002938,0.034962,-0.024638,-0.084743,-0.000000,0.018401,0.065432,0.057502,-0.025101,0.097147,-0.031530,-0.025162,-0.041275,-0.016430,0.003758,-0.010508,0.029681,-0.011958,-0.024813,-0.019895,-0.055610,-0.107675,0.087528,-0.010929,0.013036,-0.035237,-0.103095,0.034276,0.092096,-0.007368,-0.012194,-0.021623,0.015165,-0.068357,-0.017597,0.104652,0.061227,-0.008257,0.030792,-0.014406,0.037393,-0.081792,0.022466,-0.094093,-0.029878,-0.035677,-0.009470,0.015286,0.039043,0.063276,-0.132236,0.004412,-0.035999,-0.059555,-0.058833,0.039888,0.024044,-0.055322,-0.087061,-0.015679,-0.024607,0.015506,-0.028290,-0.048027,-0.030543,0.061775,-0.096278,0.010849,0.023858,-0.017240,0.065416,0.028530,-0.029206,0.089029,-0.037278,-0.018527,0.063436,0.053657,0.040998,-0.066239,0.005662,-0.058400,0.025872,0.076683,0.007874,-0.090538,-0.049432,0.064719,0.005676,0.056481,-0.008297,0.035325,-0.025858,-0.021430,-0.084116,0.041056,-0.023522,-0.028504,0.035780,0.024084,0.000000,-0.041069,-0.038451,0.020592,-0.009814,-0.033440,-0.072206,0.006655,0.002362,0.019145,0.069065,-0.062835,0.030495,-0.036079,0.006324,-0.004776,-0.026368,0.073861,-0.108692,0.035575,-0.068576,-0.001408,0.083878,0.034431,0.049004,-0.118787,0.069556,-0.077725,-0.044094,0.039318,0.046994,-0.094512,0.086425,-0.067893,-0.009336,-0.041647,-0.052487,-0.030618,-0.009861,-0.036115,-0.077068,0.062931,0.011850,-0.008502,0.039245,0.040187,-0.071082,0.050871,-0.047868,0.095066,0.006604,0.028322,0.032934,-0.018769,0.067885,-0.037254,0.059744,0.097966,-0.083704,0.009870,0.041334,0.037694,0.098332,-0.036120,0.032537,0.044393,0.073634,-0.027510,-0.037551,0.020765,0.028138,0.035045,-0.047022,-0.037980,-0.059695,0.062330,-0.013786,0.018074,0.060405,-0.125974,0.058930,0.034788,-0.050125,-0.010187,0.054740,0.023197,-0.042001,-0.002291,-0.083495,-0.024311,0.104493,-0.136307,0.071367,-0.004871,-0.023666,-0.058179,-0.000000,-0.041584,0.089109,-0.020100,-0.011753,0.009668,-0.097006,-0.043314,0.111299,0.017898,-0.001980,-0.038182,0.025730,0.064958,0.011772,0.040038,-0.013244,-0.032647,0.036685,-0.099811,0.016919,-0.006973,0.047360,-0.044531,0.005557,-0.020075,0.031966,-0.009874,0.091354,0.057044,0.054755,-0.057693,0.036633,0.019923,-0.055302,-0.101892,-0.035998,0.079763,-0.003299,-0.030677,-0.019274,0.004437,-0.034253,0.057933,0.066963,-0.004993,0.003994,-0.154830,0.006704,0.015462,-0.047987,0.045811,-0.062057,0.041506,-0.054853,-0.023936,-0.029044,0.106120,0.017956,0.013518,-0.039711,0.006568,-0.048444,0.110997,0.012852
-0.017422,0.044101,-0.037555,-0.056909,-0.062488,0.103242,-0.061871,-0.009847,0.060758,-0.007649,-0.067454,-0.034369,-0.023895,0.049011,0.007487,-0.032518,0.003872,-0.029578,-0.063078,-0.055055,0.045190,-0.024821,0.012438,-0.052053,0.064274,-0.015684,-0.057082,0.011711,0.112310,-0.062468,-0.008195,0.064950,0.082741,0.023423,0.010415,0.030798,-0.027763,0.025432,-0.039698,0.011786,0.002241,-0.019908,0.001787,0.030675,0.074525,0.032498,-0.099415,0.039598,0.013012,-0.007826,-0.109359,0.002128,-0.073153,0.089722,-0.011023,0.018848,-0.021315,-0.100371,-0.021108,0.018531,0.010287,0.040305,0.016210,-0.002879,0.040672,-0.022489,-0.003129,-0.055029,-0.044117,0.076236,0.027685,0.026029,0.050894,-0.045962,0.016697,-0.010809,-0.099987,-0.075954,-0.042602,-0.055528,-0.028094,-0.046238,-0.014446,0.050688,-0.005800,0.053863,0.025519,0.038709,-0.095618,-0.023496,-0.038522,-0.018583,0.037499,0.049859,0.043809,0.090318,0.023064,0.057564,0.061123,0.024420,0.004104,-0.003759,0.013175,0.011476,-0.075318,-0.024763,0.002200,-0.003533,-0.006446,-0.072745,0.014367,-0.046647,0.056994,0.013626,-0.022293,-0.060316,0.014855,0.044110,0.008096,-0.009393,0.139972,0.010350,0.028667,0.051899,-0.040926,0.031737,-0.065422,-0.000000,0.033533,0.006744,0.071586,0.071518,0.026395,-0.019309,-0.021171,0.012175,0.044918,0.066131,-0.033868,-0.042781,0.036620,0.026181,0.038578,-0.022200,-0.016622,0.021957,-0.117982,-0.037449,0.032924,-0.073441,-0.061955,0.027953,0.099065,0.160716,0.057938,-0.009637,-0.034189,0.007903,-0.079531,0.027033,-0.075134,-0.049807,0.035440,0.008426,0.013757,0.021282,0.023217,-0.059035,-0.002541,-0.011141,-0.055247,0.008514,-0.026204,0.019771,0.103843,0.050464,-0.012122,0.016241,0.014815,0.046036,-0.023540,-0.065847,0.073849,-0.062106,0.037773,0.022651,-0.043090,0.033579,0.055057,0.041368,0.019703,0.051091,-0.103685,0.105831,-0.060502,0.005895,0.064086,0.051939,-0.068776,-0.001127,0.027811,0.027100,0.020716,-0.006548,-0.002835,-0.005874,-0.003932,0.029693,0.042523,0.035302,0.044748,-0.002210,0.055200,-0.063743,0.110504,-0.062627,0.004736,-0.048670,-0.005454,-0.054998,-0.006925,-0.016852,-0.067017,0.000000,-0.073868,0.011561,-0.044444,0.003443,-0.057339,-0.028284,-0.002662,-0.012097,0.099704,0.068163,-0.004102,0.027685,-0.075082,-0.029475,-0.054781,-0.033627,-0.010990,-0.023474,0.007752,0.029330,-0.035837,0.030489,-0.052533,-0.030523,0.015160,0.102298,0.114720,-0.148807,0.011836,-0.013791,-0.004553,-0.247743,-0.103763,-0.050006,-0.057883,-0.049830,0.043346,-0.014623,0.010036,0.008322,0.024056,-0.030738,-0.043324,0.070317,-0.091122,-0.038767,0.089706,0.029453,-0.035272,0.013328,0.060191,0.068039,-0.049366,-0.021001,-0.054134,0.071229,-0.031378,0.042274,0.085851,0.033288,0.007539,0.040370,-0.023881,0.005012,0.067427,-0.049394,-0.059114,-0.008955,-0.045720,-0.032548,-0.051883,-0.022299,-0.006055,0.007739,0.003543,-0.018446,-0.009857,0.090314,0.073856,-0.021316,0.047422,-0.059154,0.001354,0.018006,0.045916,0.009983,0.011221,0.023001,0.014603,0.001980,-0.067876,0.040394,0.073033,0.015109,-0.012233,-0.000000,0.014759,-0.021546,-0.007449,-0.066053,-0.013175,0.030065,-0.041392,0.034813,-0.076915,0.005314,0.063180,-0.058698,-0.053404,0.016640,0.046218,-0.016327,0.025561,-0.039084,-0.044203,-0.045420,-0.010215,0.055718,0.021287,0.056416,-0.034376,0.037747,-0.082645,0.028951,-0.036155,0.023836,0.039983,-0.010209,0.015721,0.002493,-0.014884,0.023437,-0.124951,0.048719,0.075887,-0.070732,-0.009557,-0.117128,-0.039711,0.124555,0.058547,-0.000847,-0.059525,-0.124165,-0.075746,-0.093879,-0.034526,-0.083612,0.047283,-0.000539,0.021149,-0.001837,0.093989,0.016723,0.047604,0.023991,0.063891,0.014777,-0.014540,0.022213
0.004407,-0.107861,-0.026851,-0.020953,-0.019744,0.005157,0.016686,0.032147,-0.009697,0.011827,-0.017110,0.030542,-0.026715,-0.024075,0.057783,-0.009764,0.018352,-0.058269,-0.048012,0.049970,-0.044971,-0.047835,0.063938,-0.017642,0.124725,-0.047755,0.028592,0.013610,-0.038082,0.075716,-0.065777,0.027845,0.102490,-0.072261,0.004750,-0.009782,0.049747,-0.002027,-0.009804,0.059727,-0.059970,0.012132,-0.027446,-0.026265,-0.074219,0.028699,0.031585,0.065058,-0.025095,0.120644,-0.038146,0.098391,0.032780,0.017307,0.011075,0.046942,-0.002824,-0.030292,0.021264,-0.078898,-0.003941,-0.049024,0.045365,0.028836,-0.048635,-0.039930,-0.063930,0.025755,-0.100830,-0.025834,0.003389,-0.073961,-0.037383,-0.061200,-0.025361,0.028606,0.119345,0.010851,0.108819,-0.013534,0.066358,-0.022416,-0.015085,-0.028794,-0.074712,-0.041359,0.027170,0.053436,0.000581,0.031457,-0.010959,-0.000005,0.039612,-0.008939,0.012385,0.075708,-0.040995,-0.039594,-0.038055,0.040768,-0.006754,0.096690,0.011832,-0.091992,0.005819,0.016204,0.006001,0.037502,0.021638,-0.020776,0.017184,0.003461,-0.005781,0.028111,-0.008015,-0.064662,0.020324,-0.044447,0.029797,0.064281,0.060022,0.135993,-0.061945,0.006493,-0.004678,-0.031546,0.008234,-0.000000,0.044008,0.033571,0.015756,0.008835,-0.075750,-0.010317,-0.061936,0.006148,0.001932,0.027492,-0.020147,0.011435,-0.028425,0.018486,0.035102,-0.087056,-0.048242,-0.009439,0.037620,-0.007373,-0.031840,-0.113577,-0.021225,0.014085,-0.013327,-0.026406,-0.064712,0.024030,-0.027205,-0.055476,0.067285,0.065762,-0.014647,-0.129675,-0.066670,0.039750,0.033600,0.073216,0.038304,0.019274,-0.160645,0.039441,0.003804,-0.025662,0.021007,-0.005039,0.026625,-0.061332,-0.047407,0.014644,-0.059640,-0.008564,-0.046069,0.034530,-0.111987,0.021092,0.025434,-0.001885,-0.042030,0.007002,-0.053565,-0.033465,-0.015257,-0.064552,-0.159277,0.089089,0.064866,0.072376,-0.005977,0.120486,-0.015963,0.031611,-0.060638,0.045112,0.074737,0.128471,0.059683,-0.027274,0.042096,0.055173,-0.072284,-0.033468,0.026904,-0.071032,0.107375,0.069627,0.028484,0.008638,0.019120,-0.023238,0.013206,-0.009656,0.021049,0.010810,0.001167,0.000000,-0.077632,0.057823,0.003425,0.051740,-0.067675,0.013560,0.032642,0.040360,-0.032999,0.004989,-0.098904,0.054910,0.041461,-0.000309,-0.013460,-0.053951,0.012336,0.026431,0.043459,-0.048443,-0.032669,0.039411,-0.058911,0.062966,-0.015038,0.047950,-0.156012,0.067972,-0.003113,-0.031422,-0.039654,-0.077321,-0.055674,-0.067695,0.011824,-0.063980,-0.065162,-0.075182,-0.004926,0.045275,0.037700,-0.015989,-0.073997,0.033727,0.028136,-0.005690,-0.004435,0.023622,-0.005400,-0.014913,-0.003756,0.025101,-0.048148,0.069738,-0.015305,0.138808,0.018632,0.009177,-0.053117,0.009588,-0.027317,0.116964,0.018379,0.000598,-0.021875,0.023138,0.004904,-0.030883,-0.001686,-0.013667,0.051516,-0.009065,-0.006987,-0.043647,0.008920,0.066867,0.051285,-0.073180,0.053112,0.018247,-0.042709,0.031359,0.015638,0.035706,-0.023830,0.021624,-0.024226,-0.045814,0.005140,0.020586,-0.078927,-0.016923,-0.057924,-0.079462,-0.008652,-0.000000,0.004595,0.042800,-0.002313,-0.024156,0.034285,0.019464,0.059632,0.042473,0.018910,-0.069763,0.077373,0.006758,-0.103302,-0.050095,0.019490,0.043425,-0.026600,0.094678,0.017634,-0.049790,0.012972,0.123808,-0.012973,0.040024,-0.057281,0.044019,0.022692,0.151630,-0.020281,-0.025249,0.046839,0.008058,-0.030352,-0.054287,0.028747,-0.031936,-0.008684,0.002011,0.008485,-0.000878,-0.020143,-0.090971,0.011848,0.001800,-0.076628,-0.010365,-0.102704,0.069400,0.048497,-0.117227,0.033881,-0.022499,0.056575,0.033672,-0.002689,-0.052567,-0.025207,-0.002189,-0.148718,-0.010726,-0.008983,-0.097941,0.013000,0.046229
0.032217,-0.036431,0.028348,-0.039611,-0.049774,0.031442,-0.068347,0.052566,-0.013316,-0.019205,0.016993,0.005869,-0.021845,0.022088,0.076622,-0.055588,0.095118,0.111227,-0.150094,-0.027655,0.058375,-0.104085,-0.060873,-0.044826,-0.036078,-0.053823,-0.010069,0.061578,0.077123,0.037600,-0.018558,0.031339,0.058758,0.016372,-0.030391,0.050492,-0.009882,0.015314,0.052737,0.009529,0.002970,-0.002416,-0.053677,0.023946,0.014855,-0.037884,-0.064123,-0.043736,0.018924,-0.063974,-0.004598,0.003718,-0.142807,0.047714,0.009865,-0.017279,-0.061889,-0.076208,0.013800,-0.023017,-0.023150,-0.085355,0.042302,0.014395,0.002333,-0.004062,-0.036775,0.046920,-0.055233,0.026348,-0.121584,-0.017129,0.060603,0.056134,-0.005860,0.005625,0.045575,-0.009208,-0.064425,0.010281,-0.019166,-0.019290,-0.033170,-0.050525,-0.002273,0.039415,0.051671,-0.088186,0.083969,0.051465,0.007791,-0.072924,-0.052118,0.018460,-0.012037,0.031055,-0.064449,-0.058267,0.031657,0.124191,0.016106,-0.042088,0.038576,-0.064320,-0.002907,-0.049985,-0.009264,-0.000026,0.001948,-0.069810,0.027963,0.031931,0.064439,0.026936,-0.048222,-0.019585,0.017479,0.016126,0.036212,0.045591,0.076012,0.019796,0.044801,0.047028,-0.042788,-0.003215,0.029993,-0.000000,-0.014038,0.009370,0.014900,-0.034164,-0.005499,0.014711,-0.013667,-0.031799,-0.006161,0.103560,0.015282,0.035239,0.023807,0.026899,-0.041256,0.028453,0.028149,0.075105,-0.023795,-0.028055,-0.038834,-0.051255,-0.025656,-0.047081,-0.006642,0.044401,0.073769,-0.042076,0.077891,-0.002032,-0.072249,0.044750,0.004106,-0.023461,0.041438,0.139067,0.004988,-0.047747,0.003878,-0.040170,-0.107919,-0.016843,-0.105105,-0.053792,-0.010235,0.050441,0.075939,0.023520,-0.042782,-0.032574,-0.068547,0.001546,-0.029315,-0.014891,-0.041336,0.038871,0.039283,0.018804,0.041157,0.054237,-0.037145,0.041169,-0.016229,0.102067,-0.122220,0.071772,-0.041595,-0.027341,-0.025406,0.061463,-0.005753,0.050415,0.064719,-0.048571,-0.038660,0.056733,0.038778,0.039650,0.124338,-0.011359,0.027886,-0.018272,0.023439,0.099573,-0.018664,-0.029336,0.108157,0.033231,0.024999,-0.111505,-0.043591,-0.004476,-0.065460,-0.049175,0.042986,0.000000,-0.082071,0.018475,-0.028255,0.073666,0.030733,0.044783,-0.061190,-0.047996,-0.005141,0.075782,0.051984,0.045045,-0.105192,0.023453,-0.049958,-0.072678,0.042984,-0.007885,0.044197,0.084499,0.001776,0.132832,-0.060969,0.078433,0.020470,0.030199,0.030279,0.040105,-0.064959,-0.073403,0.010422,-0.082918,-0.156815,-0.008412,-0.046206,-0.061978,0.014852,0.008234,-0.016082,0.011362,0.010734,-0.068659,-0.065829,-0.031165,-0.062839,-0.005145,0.127032,0.005112,0.018536,-0.026323,-0.026996,-0.006765,0.034154,-0.010172,-0.078731,0.021762,0.013940,-0.041917,-0.011084,0.005351,0.054124,0.010161,-0.039583,0.047508,0.022320,-0.042625,-0.018958,0.003786,-0.017052,0.008255,0.011157,-0.030469,-0.014539,-0.089924,0.011675,-0.044409,-0.038922,0.038647,0.049526,-0.067063,0.043130,-0.030031,0.060196,0.000340,0.046715,0.005685,-0.018403,0.004028,0.052175,-0.027212,-0.054179,0.011263,0.032591,-0.011324,-0.030927,-0.000000,-0.046571,0.008525,0.026320,-0.008385,0.028805,0.026077,-0.058899,-0.009706,-0.023248,0.107100,0.014646,-0.140874,0.002546,-0.065979,0.083864,0.089999,0.031571,-0.054628,-0.028865,0.095056,-0.057687,0.071807,0.109699,-0.004202,-0.046801,0.066221,0.031265,0.052992,0.081880,0.035213,0.012562,-0.025859,0.053167,-0.069391,0.001270,0.027353,-0.076827,0.002114,0.065651,0.071871,-0.071785,-0.129445,0.013765,0.091866,-0.016664,-0.028353,-0.046101,-0.043737,-0.026260,-0.027010,0.092916,0.019652,-0.001174,0.024713,-0.041830,0.028079,-0.004790,0.028576,-0.055329,0.015150,0.047000,0.036896,-0.026051,0.012232
-0.115181,0.068022,0.014436,-0.026979,-0.033229,-0.028087,0.062735,-0.015746,-0.027781,0.000009,-0.040870,-0.064993,0.013249,-0.073921,0.019337,0.048474,-0.032506,-0.060255,-0.110361,0.052715,-0.058946,0.043882,-0.043843,0.030454,-0.008717,0.033620,0.060687,0.044359,0.018300,-0.069943,0.012499,0.009040,-0.005087,0.051555,0.052087,0.123924,0.012409,-0.041262,-0.085442,-0.018391,0.009461,-0.029749,-0.004373,0.023376,-0.009001,0.005993,-0.080042,-0.001170,0.025397,-0.086772,-0.001709,0.087291,-0.022791,0.055273,-0.017116,0.013249,-0.049684,-0.059323,0.038636,-0.001670,-0.002196,0.024776,-0.051977,0.082040,-0.000554,0.062705,-0.017588,0.070465,-0.035498,0.058125,-0.015675,-0.027107,-0.034658,0.050429,-0.019985,-0.012953,0.000070,0.058322,0.044931,0.004215,0.076391,0.026993,-0.076989,-0.001080,-0.010723,0.045399,-0.091296,-0.033163,0.061110,0.037104,-0.054729,0.033695,0.097434,0.050810,-0.003098,0.011978,-0.026980,0.025463,-0.097740,0.107053,0.060343,0.074155,-0.001841,0.047222,-0.043997,-0.032689,-0.002482,-0.021119,-0.002842,-0.022647,-0.073754,-0.053790,-0.069219,-0.012509,-0.001112,0.012984,-0.037260,-0.039425,0.010375,0.046244,-0.017965,0.002878,-0.120866,0.113972,-0.094363,0.017969,0.029913,-0.000000,-0.015304,-0.012737,0.029606,-0.036470,-0.027054,0.057584,-0.081241,-0.049002,-0.063479,0.006971,0.058868,-0.038422,-0.017052,0.057576,0.000859,-0.012313,0.044277,0.014167,-0.028263,0.005260,-0.011858,-0.000414,-0.003254,-0.028635,-0.086868,-0.023258,-0.039085,-0.016071,-0.010737,0.038755,-0.033097,0.019639,-0.001790,0.056238,-0.013043,-0.028630,-0.001180,0.031542,-0.035195,0.013985,-0.028022,-0.042935,-0.027463,0.015389,-0.035805,0.013994,0.002540,0.044986,-0.014484,-0.062811,0.058509,0.088446,0.042975,0.035841,-0.007833,-0.068208,0.058331,0.021238,-0.042749,-0.016274,-0.084441,0.013416,0.017845,0.020309,0.052445,-0.015718,-0.026000,-0.010550,0.031838,-0.006932,-0.029265,0.077402,-0.004062,0.058829,-0.132014,0.018003,-0.044070,0.049035,0.072803,0.024902,0.063769,0.051061,-0.074271,-0.082332,0.017776,-0.082671,-0.047923,-0.053517,0.041362,-0.028400,-0.054424,0.112638,0.020322,-0.070773,-0.033129,0.000000,0.064958,-0.014238,-0.028787,0.023947,-0.000804,0.059692,0.048139,0.088678,0.025574,0.084883,0.093518,0.006579,0.020985,-0.055434,0.161059,0.071621,-0.014342,0.087910,0.013916,-0.091110,-0.032598,-0.002937,-0.028855,0.043868,-0.025136,-0.007573,0.109982,0.153745,-0.008745,-0.016414,0.106862,-0.067834,-0.118082,-0.016006,0.023057,-0.017796,-0.087633,-0.009388,-0.003911,-0.048393,0.033125,0.088320,-0.037736,0.001492,-0.041453,-0.005794,-0.040510,0.054523,0.083627,-0.061355,0.068166,-0.010194,-0.034902,0.011741,-0.001719,0.033664,-0.016650,0.043162,0.042077,0.026233,-0.039750,-0.056175,-0.015278,0.034050,0.067611,-0.107423,-0.005239,-0.017350,-0.060740,-0.021317,0.112538,0.002540,-0.088254,-0.039909,-0.027917,0.024098,-0.027888,0.026577,-0.097296,-0.058689,-0.050301,-0.013942,0.015580,0.026654,-0.011315,-0.000185,-0.047015,-0.006807,-0.008564,0.020401,-0.002688,0.029223,-0.072799,0.085315,0.060548,-0.000000,-0.007495,-0.060433,-0.019003,-0.032858,0.029265,-0.038988,-0.074169,-0.023899,-0.058168,0.009543,0.088682,-0.014328,-0.040790,-0.059981,-0.029399,0.008224,0.123348,0.029183,0.005792,-0.029430,0.087560,0.016208,0.041610,0.050582,-0.044482,0.020188,-0.044047,0.076671,0.009607,0.000282,0.031319,0.007129,-0.035510,-0.010869,0.015727,0.034143,0.019992,-0.043645,-0.003162,0.007886,-0.018038,0.008158,0.046774,0.021460,-0.048304,-0.024311,0.047983,-0.125998,-0.027925,-0.082550,-0.049265,0.001769,0.000063,-0.024320,0.084385,-0.024868,0.013809,0.064484,-0.098066,0.034795,0.206299,0.022779,-0.095517,0.027100
-0.129198,0.035191,0.014236,0.033648,0.035818,0.028737,0.116457,-0.021013,-0.090361,-0.106221,0.037583,0.090524,-0.025750,0.070183,0.077335,0.053922,-0.057031,-0.089543,-0.045250,-0.004972,-0.058613,-0.007364,-0.055836,0.032232,0.028646,-0.007110,-0.042122,0.027520,-0.031003,-0.032395,-0.005393,-0.001624,0.021046,0.015999,-0.014030,0.036680,-0.040233,-0.031001,0.051573,-0.003784,-0.003108,-0.058880,-0.039140,0.065288,0.009012,0.013795,-0.054921,0.044962,0.059790,-0.074304,-0.019424,0.011446,-0.002298,0.020413,0.145074,-0.060270,0.055197,0.011534,0.002813,0.048430,0.019921,-0.025219,-0.135478,0.146013,0.011989,0.004409,-0.079716,-0.143145,-0.023307,0.004519,-0.011278,0.020299,0.111782,-0.087239,0.031544,0.036714,0.013743,0.031676,0.064929,0.034032,-0.009172,-0.008975,-0.048108,0.001839,0.006504,-0.041871,0.100288,0.056360,0.057070,0.054436,-0.003319,-0.035322,0.066327,-0.016536,-0.074169,-0.069541,0.012127,-0.066138,-0.020415,0.071797,0.019006,0.017300,0.005167,-0.026794,-0.010121,-0.035647,0.017907,0.024205,0.060261,-0.073074,-0.022195,-0.044720,-0.028957,-0.002878,0.022241,0.028897,-0.014725,-0.026510,0.013115,-0.007086,0.027044,0.022695,-0.010577,0.086642,0.071689,-0.087319,-0.020206,-0.000000,0.021859,-0.033760,0.080430,0.006448,0.003788,-0.038586,-0.114515,-0.015282,-0.023691,-0.035175,-0.010355,-0.033107,-0.038242,0.043034,0.032877,-0.008033,-0.033101,0.065739,-0.035371,-0.035461,0.044071,0.089675,-0.001388,-0.042999,-0.029619,-0.081926,0.062614,0.005783,0.086652,0.061155,-0.036035,-0.002771,-0.013549,-0.016500,-0.002102,0.025016,-0.002625,-0.060336,-0.006845,0.004867,-0.105243,-0.023217,-0.032559,-0.005351,-0.035584,0.011082,0.021481,-0.018669,-0.101882,0.044666,0.007501,0.003787,-0.080016,-0.017739,-0.027274,0.006852,-0.031231,-0.024101,0.038384,0.045837,-0.009356,0.034121,0.064912,-0.032460,-0.035086,0.029798,-0.017554,0.073163,-0.004652,-0.001144,-0.063213,0.062255,-0.045531,0.059381,0.021382,0.036565,-0.003306,0.020121,0.015696,-0.045537,0.108225,-0.001185,-0.039264,0.074766,0.075453,0.044515,0.026498,0.009588,0.021761,-0.019456,-0.056988,-0.006168,-0.005780,0.029659,-0.057379,0.000000,-0.115761,-0.055985,-0.021227,0.076429,-0.002229,0.018811,-0.002325,0.053632,-0.155822,0.073408,0.067979,-0.088610,0.012836,0.004119,0.050837,0.013890,0.028195,0.012342,0.046709,-0.055311,-0.031900,-0.012121,-0.007485,-0.053257,-0.051018,0.102131,0.024765,-0.015619,-0.069974,0.016397,0.044858,-0.033039,-0.012023,0.008138,-0.006806,0.069448,0.037085,0.026690,0.081613,-0.031418,-0.030199,-0.081685,-0.072437,0.255428,-0.008399,0.000511,-0.007275,-0.015664,0.009517,0.032670,-0.090680,0.060402,0.031359,0.024173,0.002072,0.046980,0.014488,0.006039,0.036324,0.032242,0.045390,0.003913,-0.027456,-0.029920,0.039835,-0.003715,-0.015557,-0.102578,0.029980,-0.005136,0.044399,-0.055775,-0.062099,-0.003134,0.031993,-0.028804,0.031849,-0.074161,0.035376,-0.126986,-0.071437,-0.023926,-0.040262,-0.011631,0.100548,-0.020397,-0.010772,-0.033717,0.015156,0.032254,0.024919,0.031577,0.031477,-0.026510,0.000565,-0.000000,-0.035963,0.063364,-0.026805,-0.021336,-0.054711,-0.011557,-0.074367,0.005695,-0.017001,-0.011389,0.086551,-0.049702,0.065893,-0.015806,0.020378,0.039028,-0.008544,-0.014055,-0.058360,-0.036247,0.104325,0.115890,-0.014024,-0.018327,-0.006934,0.001136,-0.013852,-0.013880,0.001175,-0.017518,0.063910,0.038285,-0.048739,0.033526,0.119714,-0.095985,-0.061907,-0.029722,0.006486,-0.011117,0.019049,-0.024333,-0.005631,0.079855,-0.049539,0.010484,-0.014924,-0.101763,-0.000228,-0.079566,-0.105139,0.022102,-0.023789,0.008754,0.062054,-0.000352,0.019950,-0.014450,0.027234,0.024741,0.116940,-0.033172,0.070711,-0.018669
0.002062,0.091785,0.055804,0.022247,0.089618,-0.086074,-0.031174,0.010638,-0.062537,0.064494,-0.029941,-0.080293,-0.083736,-0.014764,0.034520,0.018339,-0.013290,-0.020933,-0.042154,0.033397,0.013649,-0.053865,-0.013225,0.016194,0.006656,0.050329,-0.001804,0.018014,-0.018591,0.064979,0.014024,0.087112,0.001565,-0.061535,-0.002923,0.061084,-0.029600,-0.027781,-0.005036,0.010647,-0.076809,-0.002895,-0.024245,0.041201,-0.052551,-0.019928,-0.017205,0.001051,-0.003944,0.050488,0.082919,0.046065,-0.073774,-0.003724,0.008393,-0.030126,-0.063754,-0.012672,-0.018395,-0.061457,-0.031180,-0.056802,-0.017358,0.021233,0.071847,-0.021291,-0.010869,0.013229,-0.037481,-0.011667,-0.033277,-0.029389,-0.009513,-0.126346,0.007486,0.058441,0.096402,0.094404,0.064778,-0.103342,0.036555,-0.012244,-0.020662,-0.098323,-0.058345,0.041376,-0.051146,0.022872,0.018526,0.028790,0.006912,-0.027896,0.138785,-0.019097,-0.056887,0.119152,-0.066719,0.015893,0.042074,0.002571,0.016854,0.049452,0.029979,-0.130504,-0.010830,-0.052659,0.014120,-0.004947,0.032313,-0.014195,-0.066973,0.009875,0.024403,0.058752,0.071176,0.041850,0.021738,-0.083218,0.105863,0.066790,0.011762,-0.004046,-0.028278,0.039548,-0.011956,-0.076162,0.009508,-0.000000,-0.042097,0.018196,0.069200,-0.090440,-0.071469,0.006189,0.016596,0.003257,-0.022468,-0.033809,0.050494,0.027072,-0.051138,0.058062,0.066634,-0.093397,-0.033845,0.073181,0.012611,-0.040227,-0.020311,-0.085642,-0.008084,0.021099,0.088140,-0.104401,0.028735,-0.008777,-0.040233,-0.013201,0.073522,0.064399,-0.037084,-0.009040,-0.018083,-0.001271,0.026500,0.095252,-0.006958,-0.001043,-0.029158,0.022280,0.010278,-0.037615,0.023438,-0.055797,0.078342,0.030096,0.011813,-0.060815,-0.020131,0.022312,-0.062168,-0.032837,-0.049024,-0.048615,0.142786,-0.108146,-0.009883,-0.060712,-0.075606,0.019670,-0.025986,-0.063684,-0.098804,0.091272,0.027883,0.089374,-0.028583,0.040267,-0.037854,-0.005535,0.021913,0.051063,-0.000496,0.025484,0.043470,0.020566,0.011487,0.137752,-0.031161,0.035418,-0.030817,-0.063955,0.017185,-0.014850,0.059734,-0.021895,0.050617,-0.004925,0.042465,0.009741,-0.012116,-0.047842,0.016868,-0.000000,-0.004415,0.053721,0.077179,0.035052,-0.008139,-0.002680,-0.007045,0.012711,0.106373,0.053558,-0.016279,0.080893,0.051147,0.026080,0.028183,-0.012751,-0.031795,0.009671,-0.025779,-0.079333,-0.017066,0.003291,0.041116,0.056594,-0.038234,0.026735,-0.053823,0.021938,-0.003004,-0.004399,-0.052582,-0.063062,-0.066927,-0.077713,-0.001054,-0.103470,-0.008569,-0.011582,-0.022428,-0.011639,0.051938,-0.077114,-0.042261,0.038713,-0.015616,-0.068293,-0.051824,0.025586,0.074823,-0.064592,0.123806,0.058764,-0.088225,0.034828,-0.014663,0.117737,0.050241,0.023615,0.051091,-0.050076,-0.045795,0.065167,-0.009352,-0.027923,-0.084590,-0.034184,0.002570,-0.050398,0.003119,-0.008352,0.006639,0.058607,-0.052595,-0.037312,-0.031513,0.069070,0.050991,-0.022746,0.077076,0.037487,-0.003419,0.037643,-0.007843,-0.041675,-0.009505,-0.025872,-0.073459,-0.072296,-0.114152,0.034236,-0.095453,-0.033603,-0.031341,0.073839,0.029362,-0.000000,0.035033,0.019476,0.072553,0.000879,0.050626,-0.064297,0.032116,0.083474,-0.002489,0.037719,0.059456,0.059328,-0.025057,0.016248,-0.082263,0.002558,0.023320,-0.042414,-0.026782,-0.016733,0.020886,-0.048337,-0.012364,0.014791,-0.023745,-0.008754,-0.031211,0.135359,0.048272,-0.037058,0.036829,0.008995,-0.010617,-0.067727,-0.002424,-0.108208,-0.038248,0.006511,0.008492,0.046949,-0.000243,-0.065518,0.048929,0.076213,-0.006664,-0.088789,-0.054705,-0.029123,-0.016964,-0.121375,0.009440,-0.057357,-0.002132,-0.007896,0.070322,0.049641,-0.071228,0.024950,-0.081414,-0.012291,0.040175,-0.058905,-0.084224,0.063224
0.051073,0.008879,0.015232,0.020204,0.011354,-0.089899,0.006596,0.077130,0.007900,0.047982,-0.036386,-0.035645,-0.005036,-0.004313,-0.017218,0.045108,-0.017771,-0.129299,0.016325,-0.007288,0.044529,-0.038659,-0.054172,-0.002079,0.058026,0.030081,0.018348,-0.009887,-0.032438,0.102314,0.012053,0.010274,0.002097,-0.003442,-0.029916,0.063271,-0.020684,0.006795,0.011798,0.000964,-0.006081,0.050796,0.021527,0.055934,-0.003179,-0.026359,-0.030889,0.069656,0.041025,0.137478,0.010426,0.073214,0.011628,-0.016538,0.007177,0.017984,-0.040305,0.019303,-0.057804,0.014776,-0.084217,-0.035369,-0.024192,-0.029291,0.000896,-0.067545,-0.013993,-0.000791,-0.036217,-0.039569,0.014560,-0.028302,-0.035465,-0.142854,0.026077,0.064107,0.093914,0.094388,0.079055,-0.049652,0.000446,-0.054794,0.022283,-0.050304,-0.017584,0.036440,0.020783,0.063921,0.012106,0.024234,0.011684,-0.089520,0.089552,-0.031362,-0.042539,0.119365,-0.039909,0.027206,-0.002689,0.009976,-0.035361,0.061815,0.054383,-0.107437,0.003682,-0.017057,0.026895,-0.010249,-0.002114,-0.009386,-0.022770,-0.001493,0.004078,0.072407,0.016182,-0.044142,0.002705,-0.011211,0.079274,0.019503,0.055101,0.078692,-0.036483,0.066252,-0.040487,-0.115491,-0.053169,-0.000000,0.045696,0.043494,0.041695,-0.008938,-0.120777,-0.034525,0.072036,0.040734,-0.085503,-0.007034,0.024860,0.017895,-0.024645,0.041485,0.054710,-0.093506,-0.036132,0.021339,0.010136,-0.055860,-0.017791,-0.032705,0.070045,0.043567,0.017104,-0.001708,-0.070865,-0.045108,0.004229,-0.020955,0.046521,0.068895,0.079131,-0.041093,-0.050536,0.026763,0.083969,0.047979,-0.026391,0.032230,-0.035517,0.023256,0.008236,-0.056695,-0.026197,-0.070544,0.069160,0.025222,-0.010318,-0.041390,-0.029339,-0.035409,-0.103321,0.002816,-0.106368,-0.035807,0.060547,-0.053986,0.028903,0.001807,-0.080640,-0.013750,-0.014255,0.043938,-0.120338,0.054586,0.067367,0.033915,-0.035439,0.085975,-0.019496,-0.059154,0.015335,-0.016302,0.024515,0.028160,0.089851,-0.042359,0.067861,0.114336,-0.032620,-0.023685,0.045802,0.008749,0.096181,0.042231,0.068368,0.017521,-0.029399,-0.056060,0.014073,-0.007434,-0.017258,0.005673,0.040925,-0.000000,-0.050024,0.053990,0.077506,0.007014,-0.039290,-0.040210,-0.004438,0.127172,0.005415,0.042124,-0.008274,0.005714,0.049651,0.110333,-0.073853,-0.014541,0.052943,-0.051684,-0.020034,-0.098467,-0.029857,0.062528,0.051956,0.042652,-0.009496,-0.026759,-0.046321,-0.010911,-0.048167,0.000662,-0.016496,-0.049051,-0.028811,-0.055408,-0.031829,0.000884,0.055388,0.008402,0.009911,-0.018242,0.051201,-0.108581,-0.074939,0.039491,0.037092,-0.047813,-0.038033,-0.033200,0.020349,-0.031770,-0.008019,-0.015428,-0.096567,0.005656,-0.022630,0.080947,0.014722,0.033755,0.051302,-0.087835,-0.024278,0.043431,-0.062498,-0.022089,-0.042939,0.070423,0.015571,-0.034214,0.002171,-0.045371,0.047954,0.096316,-0.027997,0.004604,-0.017062,0.102338,-0.000941,-0.066614,0.120861,0.068056,-0.000037,-0.022395,-0.003535,-0.063861,0.027837,-0.028816,-0.006119,-0.030296,-0.122271,0.076808,-0.087060,-0.053053,0.050670,-0.040943,0.024588,-0.000000,-0.009846,0.120123,0.040033,-0.005721,0.033836,-0.052192,0.084980,0.074495,0.031658,0.025997,0.016133,0.019859,-0.064790,-0.040744,-0.021880,0.032082,-0.054435,0.002278,-0.003720,-0.052738,0.009328,0.045291,-0.052898,-0.015657,-0.014076,-0.023565,-0.048654,0.098016,-0.066654,-0.055524,0.034045,-0.034519,-0.047841,-0.019112,-0.027917,-0.106101,-0.046779,-0.059553,0.035889,-0.011390,-0.007435,0.021082,0.033855,0.073010,0.014118,0.009215,-0.134503,0.001097,0.031576,-0.132683,0.101950,0.049795,-0.056228,0.006682,0.032921,-0.000278,-0.008942,0.010419,-0.090621,-0.057055,-0.016485,-0.097201,-0.057001,0.034779
0.048914,-0.003834,0.112308,0.057462,0.097228,-0.016536,-0.028497,-0.075765,-0.019852,0.075055,-0.045270,0.026512,-0.051348,0.037069,-0.047469,-0.002585,0.039752,-0.029220,-0.018891,0.029233,0.042240,0.036709,-0.004698,-0.002400,-0.010449,0.074181,-0.056286,-0.005650,0.002346,-0.013768,0.007841,0.124014,-0.037110,-0.001654,0.072785,0.089720,-0.016726,0.014982,0.035244,0.012326,-0.072033,-0.002117,-0.038617,-0.004830,-0.099945,-0.077781,0.023286,-0.087038,-0.062052,-0.028577,0.105729,0.065604,-0.025016,-0.023318,0.011476,-0.026162,-0.007129,0.030817,-0.033566,0.003060,-0.008352,-0.016106,-0.035771,-0.018094,0.167789,-0.002195,-0.065180,0.023831,-0.089242,0.010620,0.018782,0.030451,-0.033610,-0.097754,0.042734,0.032378,0.059411,0.065737,0.065946,-0.017168,0.031885,0.013511,0.009920,-0.017085,0.027759,-0.008590,-0.016151,-0.046723,0.075458,0.005666,-0.020045,-0.052049,0.102049,-0.033719,-0.008776,0.048267,-0.006082,-0.008681,0.018591,-0.020600,-0.000426,0.093147,0.029287,-0.087275,-0.024569,-0.074103,0.016052,-0.009910,0.010440,0.022860,-0.008873,-0.020933,0.020128,0.033757,-0.001316,-0.000302,-0.005251,-0.105192,0.011067,-0.031078,0.044090,-0.013934,-0.027245,-0.031150,-0.035442,-0.036273,-0.011530,-0.000000,-0.030204,0.003361,0.031015,-0.043616,0.016295,-0.079558,-0.035281,0.014608,0.092557,-0.065326,0.032326,0.093694,-0.021768,0.116515,0.086431,-0.027683,-0.065600,0.094384,0.037567,-0.037760,0.007251,-0.092647,0.007123,-0.056662,0.031855,-0.108350,0.043651,0.042798,-0.004519,-0.008243,0.152802,0.071808,-0.033605,0.053912,-0.039802,-0.000781,-0.018021,0.084027,-0.022606,-0.021947,-0.042162,0.017640,0.055145,0.038738,0.034964,-0.056104,0.132692,-0.038296,-0.075067,0.006538,0.031645,0.098681,-0.020177,-0.008448,-0.028808,-0.072124,0.064677,-0.090712,-0.026785,-0.000790,-0.036241,0.054636,-0.036106,0.065876,0.028789,0.076498,0.033989,0.094092,-0.028669,0.047893,-0.006320,0.021004,0.010110,0.014056,-0.019735,-0.037647,-0.018306,0.018450,0.028492,0.019644,-0.077751,-0.033538,-0.004074,-0.026244,-0.012320,-0.057884,0.054925,0.049537,0.018134,0.001674,0.112128,0.004115,-0.021886,-0.061564,0.054225,-0.000000,-0.045262,0.065615,0.009122,0.004526,-0.028280,-0.045566,-0.060868,-0.052656,0.044854,0.006868,-0.121494,0.064939,-0.025050,0.062408,-0.059726,-0.050480,-0.027463,-0.027546,-0.009620,-0.074577,-0.001020,0.006959,0.027619,0.023601,-0.043034,0.085202,-0.110682,-0.053955,0.023715,-0.062321,-0.052163,0.009472,-0.032825,0.010074,-0.016155,0.012488,-0.054747,0.000234,0.029709,-0.007314,0.041516,-0.004016,-0.042918,-0.012099,0.011774,-0.031333,-0.053571,0.021077,0.069140,-0.021539,0.082219,0.061579,-0.103915,-0.019487,0.016860,0.100812,0.057554,0.015839,0.006642,0.006030,0.001638,0.107822,-0.016390,0.013137,0.010323,-0.001127,-0.000698,-0.071235,0.022006,-0.010877,-0.009356,-0.001790,-0.056355,-0.059270,-0.028484,0.036797,0.016690,0.020215,-0.043770,0.049745,0.049914,-0.006966,0.055604,-0.045927,0.026176,-0.024486,-0.039264,-0.112465,-0.043083,0.093608,-0.116126,-0.016956,-0.047552,0.094206,-0.025974,-0.000000,0.000710,-0.021708,-0.000420,-0.018382,0.022520,-0.087825,0.068749,0.112353,0.013053,0.015239,0.027998,0.012595,-0.034065,0.121131,-0.068093,-0.002375,0.002352,-0.055923,-0.125190,-0.069700,-0.015722,0.034385,-0.044147,0.048604,-0.002348,0.017744,-0.070103,0.036197,0.035157,0.029417,0.061512,0.049166,-0.031205,0.010387,-0.017190,-0.098288,-0.010784,-0.008308,-0.032868,0.021424,-0.027225,0.026219,-0.035775,0.081065,0.049016,-0.082654,-0.180126,0.029792,-0.011481,-0.088835,0.056329,-0.043937,-0.012030,-0.007657,0.074485,-0.025632,-0.038889,0.000935,-0.051757,-0.023266,-0.010115,-0.006784,0.069175,0.049206
0.001720,-0.048522,0.065195,0.056878,0.027813,0.073753,-0.096474,-0.087690,-0.042297,-0.060075,0.000099,0.065087,0.002161,0.079571,0.001258,0.053321,-0.078549,-0.114438,-0.010621,-0.049129,-0.032883,0.009301,0.012974,0.002546,0.003290,0.016743,-0.045557,-0.028653,-0.004535,0.030564,0.034629,0.071427,-0.010382,0.054382,0.033586,0.060424,-0.038789,0.027340,0.026164,-0.045585,0.072972,-0.113947,-0.012085,0.018997,-0.015188,0.002263,0.027639,-0.057547,0.042799,-0.030928,-0.127582,-0.068037,0.023352,-0.018275,0.031648,0.055673,0.032099,-0.026745,0.009508,0.004166,-0.026092,-0.013899,-0.031609,0.019819,-0.046013,0.052373,-0.006484,0.033814,0.033552,0.014787,-0.023135,-0.020070,-0.040637,0.005564,0.029083,-0.017235,0.008245,0.035212,0.064970,-0.043178,0.046166,0.036343,0.002628,0.028558,0.015475,0.026252,-0.016383,-0.102429,0.001071,-0.005509,-0.042229,-0.072900,0.041306,0.034161,-0.015155,-0.053522,-0.020894,0.010950,0.052622,0.048650,-0.116909,-0.004950,-0.040354,-0.064938,-0.013487,0.005061,0.026249,0.078926,-0.060165,0.015957,-0.007938,-0.000794,0.035571,0.056374,-0.029643,0.031345,-0.089299,0.014481,0.055031,0.124614,0.001920,0.012608,-0.036718,0.052117,0.031034,-0.064950,-0.015878,-0.000000,-0.047306,0.024814,0.036912,0.140466,-0.051778,0.030303,-0.084139,0.062995,-0.099272,-0.059983,-0.006057,0.111975,-0.066384,-0.014909,-0.008588,-0.102567,-0.078207,0.065200,0.031459,-0.039602,0.068253,-0.012648,-0.024359,0.042249,0.056898,-0.026870,0.029928,0.007581,0.032257,0.006926,0.010868,0.013907,-0.051627,-0.021825,-0.043315,0.072501,0.095985,-0.006336,0.035701,-0.020709,-0.039423,-0.003630,-0.064020,-0.020860,0.003983,0.037568,0.045957,-0.060489,-0.029256,0.025382,-0.065442,-0.027777,0.036998,-0.064640,-0.106263,-0.051635,-0.084475,-0.007695,0.035197,-0.024109,0.069676,0.058633,-0.040259,0.064705,0.011743,0.115756,-0.033194,-0.021209,-0.048466,0.037004,0.033141,-0.027566,0.018984,-0.039626,-0.009019,-0.034596,-0.075262,-0.118534,0.057820,-0.001088,-0.073614,0.070415,-0.014602,0.013688,0.157752,-0.033277,-0.048777,-0.130882,-0.013216,0.062568,-0.000642,-0.007477,0.024332,0.049262,0.024659,0.000000,-0.009548,0.023712,0.020625,0.080687,0.085380,-0.024629,0.011022,-0.019490,0.010099,0.017156,-0.053247,0.015191,0.015758,0.067499,-0.058405,0.014052,0.076377,0.057385,-0.037798,-0.029350,-0.025451,0.095895,-0.042812,0.010352,-0.028740,0.070175,0.064516,-0.035663,-0.093887,0.036748,-0.088398,-0.015721,-0.098749,-0.092442,-0.010418,0.080893,0.064594,0.031454,-0.035053,-0.045546,0.030152,-0.073156,-0.034007,-0.023468,0.046652,0.028623,0.030950,0.060450,-0.049161,-0.035490,0.011304,0.063711,-0.016778,-0.070041,-0.064201,0.082588,0.025597,0.006434,-0.045794,-0.049867,-0.021316,-0.025416,-0.044420,-0.027991,0.072152,-0.010268,0.050777,0.001206,-0.079620,-0.002391,0.047419,-0.097779,-0.111934,0.063169,0.003078,-0.075507,0.015274,-0.046391,-0.058405,0.040399,0.016443,-0.099108,0.025895,0.046086,0.054533,0.013935,-0.059860,-0.019319,-0.017412,0.051167,-0.040410,-0.105859,-0.035204,-0.101222,-0.021197,-0.000000,-0.002295,0.024006,-0.056080,-0.001592,0.098195,0.015352,0.066131,0.038585,-0.021502,0.036672,0.085728,0.094689,0.006031,0.049991,0.070767,0.068057,0.023076,-0.019714,-0.041612,0.014499,-0.057887,0.024075,0.041245,0.008188,-0.053983,0.031863,-0.087382,-0.008161,0.013346,-0.076767,-0.007370,0.026917,-0.043414,0.052856,-0.000516,-0.022342,0.014269,0.008669,0.035936,-0.100160,-0.041710,0.086762,0.032791,0.122612,-0.011054,0.047506,0.014329,0.098268,-0.009509,0.051728,0.031239,-0.005445,0.023744,0.032589,0.053052,-0.025038,-0.026186,-0.033924,-0.009731,0.049741,0.078527,-0.022904,0.026510,0.018587
0.034477,0.007078,0.080615,0.013413,0.104767,-0.051217,-0.045330,-0.026756,-0.019434,0.045848,0.000640,0.011486,-0.064841,0.041327,0.065923,0.061910,-0.035384,-0.053667,-0.024495,0.081717,-0.024429,0.014691,0.049902,-0.017421,-0.027559,0.017409,-0.039363,-0.011601,-0.018719,0.103946,-0.004110,0.102324,0.024527,-0.025459,0.032636,0.047499,-0.020781,0.034462,0.008819,0.062139,-0.075647,-0.043097,-0.042140,-0.056142,-0.056555,-0.049989,0.067928,-0.026187,-0.079909,0.004304,0.052845,0.061959,-0.015443,-0.066093,-0.002581,-0.027464,0.018730,-0.023700,-0.024014,-0.009112,0.023283,-0.059272,-0.044462,0.007166,0.099747,0.027272,-0.018289,0.019117,-0.047969,-0.042219,-0.037595,-0.015632,-0.022150,-0.137422,-0.031550,0.043363,0.078984,0.068370,0.082194,-0.079090,0.072822,-0.013526,-0.001233,-0.101688,-0.003382,0.042201,-0.007377,-0.089455,-0.015114,0.034266,-0.041027,-0.050866,0.059117,0.029263,-0.025463,0.100086,-0.008835,0.011210,0.090891,-0.027736,0.035268,0.055739,-0.002058,-0.082105,0.036675,-0.038535,0.015856,-0.009133,0.020771,-0.033800,-0.030046,-0.005618,0.019465,0.046396,-0.021561,0.028423,-0.005167,-0.081407,0.073606,0.035335,0.053856,0.002522,-0.017238,-0.006811,0.048343,-0.014534,0.001851,-0.000000,-0.024451,0.012240,0.057697,-0.096069,-0.000167,-0.001960,-0.025631,-0.015709,0.053738,-0.042654,0.001636,-0.012561,-0.008142,0.103102,0.014136,-0.068032,-0.084003,0.043145,0.024412,-0.028424,0.000234,-0.069391,-0.037777,-0.002769,0.070127,-0.081322,0.082322,0.030209,-0.010396,-0.012085,0.117257,0.050164,-0.098203,-0.008933,-0.025549,0.022326,0.033055,0.101211,-0.024675,-0.043558,-0.049319,0.032082,-0.014414,0.001497,0.058732,-0.043414,0.121775,-0.004371,-0.056535,-0.038553,-0.031277,0.024152,-0.067890,0.005487,-0.018701,-0.082826,0.050504,-0.097219,-0.057649,-0.043975,-0.059452,0.062166,-0.061184,-0.022622,-0.043370,0.105052,0.112140,0.083544,-0.098080,0.030469,0.044037,-0.015180,-0.055060,0.022729,0.004370,0.042638,0.037180,-0.003116,0.009523,0.037931,-0.073537,-0.027743,0.005029,-0.065212,0.005417,-0.015806,0.078263,0.005890,0.087279,-0.017839,0.069138,-0.008239,-0.039194,0.011195,-0.021543,-0.000000,0.009281,0.055005,0.057318,0.061553,-0.051047,-0.075155,-0.028946,0.004789,0.109582,-0.007818,-0.068033,0.129718,0.006955,0.074478,0.032653,-0.035740,-0.039827,-0.003899,-0.014454,-0.052073,-0.014825,-0.017105,0.001584,0.066556,-0.047783,0.038948,-0.030425,-0.021878,0.006854,-0.050079,-0.073315,-0.009842,-0.054232,-0.037290,-0.027723,-0.016699,0.006609,-0.085960,-0.015548,0.032862,0.003491,-0.053685,-0.039184,-0.028920,0.004795,-0.027386,-0.052671,0.053016,0.028616,0.009775,0.098874,0.079572,-0.074945,-0.009448,-0.034463,0.085253,0.078089,-0.000015,-0.067057,-0.011083,0.020351,0.080907,0.032844,-0.024161,-0.023142,-0.030176,0.008595,-0.080865,0.016249,0.008800,-0.000248,-0.020595,-0.103018,0.028627,-0.056976,0.045958,0.046412,-0.033574,0.020940,0.053791,0.020668,0.024707,0.027442,-0.105406,-0.008810,-0.029155,-0.095440,-0.118458,-0.066729,0.078882,-0.107087,-0.046653,-0.062322,0.010026,-0.041183,-0.000000,0.007723,0.025494,0.053488,0.016795,0.061264,-0.007908,0.075488,0.094125,0.009454,-0.001264,0.113619,0.078703,0.005184,0.043300,-0.053292,0.007108,0.010720,-0.125491,-0.053584,0.012814,-0.000035,0.034974,-0.070808,0.055846,0.018286,-0.015955,-0.013361,0.120166,0.013397,-0.021378,0.036072,0.060578,-0.012274,-0.038981,-0.025950,-0.090081,-0.038521,-0.002782,-0.025785,0.049157,-0.002235,-0.033703,-0.040215,0.042307,0.021809,-0.088166,-0.085057,0.025921,0.001399,-0.101606,0.013149,-0.066090,0.003370,0.013395,0.087546,-0.025010,-0.077217,0.033829,-0.073366,-0.029683,-0.004154,-0.077210,0.008804,0.027862
